%time,field.linear.x,field.linear.y,field.linear.z,field.angular.x,field.angular.y,field.angular.z,secs_since_start
1591110226345132240,176.498470672,1151.28865327,-0.505563842793,1.42594186644,0.840044489695,21.0401192128,0.0
1591110226345210641,176.501939967,1151.28419464,-0.505858641144,0.855950374343,0.797974659555,21.1033882327,7.8336e-05
1591110226345301942,176.505621746,1151.27855267,-0.506666419861,0.182486637601,0.75137454519,21.1771769163,0.000169728
1591110226345452351,176.509201896,1151.27227152,-0.506961829336,-0.567644384968,0.700704173973,21.2591015399,0.00032
1591110226345539432,176.512747921,1151.26562055,-0.507378094877,-1.37665820706,0.654912158943,21.3494506493,0.00040704
1591110226345645500,176.516579391,1151.25865946,-0.508278438353,-2.22024993544,0.608289930916,21.445692765,0.00051328
1591110226345799781,176.520813283,1151.25155092,-0.509078499796,-3.0745868209,0.563123359406,21.5469893454,0.000667392
1591110226349402474,176.52483667,1151.24435688,-0.509401453514,-3.91096317976,0.526033576292,21.6615446328,0.00427008
1591110226349483996,176.528414522,1151.23720333,-0.509906755246,-4.7095203689,0.49513070672,21.7862026266,0.004351744
1591110226349643324,176.532131053,1151.229819,-0.510501937948,-5.43922126967,0.472932048164,21.9279992932,0.004510976
1591110226349723701,176.536082266,1151.2222824,-0.510634893656,-6.08582021846,0.460175860526,22.0721312764,0.00459136
1591110226349801800,176.540235467,1151.21487844,-0.51001495111,-6.63319315095,0.457346565721,22.2314943302,0.00466944
1591110226349866848,176.544695212,1151.20764006,-0.510796255557,-7.0678000328,0.467911601971,22.3940482003,0.004734464
1591110226349954214,176.549064274,1151.20047377,-0.509946716353,-7.37551636635,0.487369285772,22.5646716154,0.004822016
1591110226350027894,176.553576507,1151.19382962,-0.509952877752,-7.54578656788,0.51546815145,22.7370132624,0.004895488
1591110226350126690,176.557656581,1151.18764911,-0.50845544395,-7.57591889396,0.551934394466,22.9209160246,0.004994304
1591110226350236764,176.561792771,1151.18180171,-0.507917835268,-7.45603210876,0.594504634354,23.0986981855,0.005104384
1591110226350352403,176.565463197,1151.1766795,-0.506419156453,-7.18190311362,0.63960061632,23.2805598949,0.005220096
1591110226350494503,176.569267312,1151.17224138,-0.505209454958,-6.76067470406,0.683696808944,23.4566636884,0.005362176
1591110226351339143,176.572644474,1151.16835419,-0.504680896,-6.20254125885,0.727821003087,23.6308013662,0.006206976
1591110226351355562,176.575377648,1151.16493944,-0.503049713321,-5.51378034562,0.763931609022,23.8058548853,0.00622336
1591110226388164370,176.578136824,1151.1621341,-0.502228457107,-4.72490811773,0.800356522616,23.9747094552,0.043032064
1591110226431623286,176.580564359,1151.1599641,-0.502338854439,-3.85947169152,0.830256188105,24.1377642005,0.08649088
1591110226483901652,176.582684317,1151.15821586,-0.501041903076,-2.9353003302,0.851392585043,24.2997667513,0.138769408
1591110226534849514,176.584603073,1151.15688217,-0.500497933797,-1.98218595628,0.866506368415,24.4498144588,0.189717248
1591110226584465735,176.586435055,1151.15563593,-0.499517655693,-1.02580664403,0.878022246187,24.5891448427,0.239333376
1591110226630619569,176.588117226,1151.15459404,-0.499729293084,-0.107038558545,0.886785882179,24.7287394579,0.28548736
1591110226681962168,176.589538181,1151.15384894,-0.499739369528,0.753396993472,0.887345348055,24.8591428333,0.336829952
1591110226730872000,176.591197297,1151.15292302,-0.499734309109,1.52579040344,0.881236788898,24.9860255852,0.385739776
1591110226783733947,176.592766902,1151.15199615,-0.499783975634,2.18836965158,0.873882937403,25.1143597269,0.438601728
1591110226833408362,176.594400437,1151.15072197,-0.499907509406,2.71919989478,0.861403427327,25.2395323078,0.488275968
1591110226882262975,176.595884938,1151.14863483,-0.500121750582,3.10947425284,0.843890502374,25.3679583183,0.537130752
1591110226933445274,176.597360243,1151.146293,-0.500420053736,3.34208616842,0.820044608723,25.4898772214,0.588313088
1591110226983385045,176.598945767,1151.14370863,-0.500803913339,3.41792932554,0.794355561686,25.6147945414,0.6382528
1591110227034039741,176.60119146,1151.1406306,-0.502182910798,3.33000795581,0.764799697128,25.7332341649,0.68890752
1591110227084844512,176.603482811,1151.13686684,-0.503199897161,3.0886318249,0.736510989642,25.8518939276,0.739712256
1591110227133464531,176.605655109,1151.13269872,-0.503979374217,2.70167147684,0.709881352379,25.9647267437,0.788332288
1591110227183223244,176.607698276,1151.12816747,-0.504129948784,2.17925843609,0.683947559846,26.0701752686,0.838091008
1591110227231006673,176.609695643,1151.12317291,-0.504846077292,1.5314776851,0.669845267659,26.173388354,0.885874432
1591110227284915322,176.612091046,1151.11794429,-0.504394539725,0.776999144498,0.654800075045,26.2689656036,0.939782912
1591110227332950701,176.614776851,1151.11223171,-0.504721536239,-0.0755497699997,0.647210594855,26.3716457611,0.987818496
1591110227386356711,176.617218737,1151.10604807,-0.504475804148,-1.01025493975,0.639991686263,26.4870085109,1.041224448
1591110227433440189,176.61998251,1151.09952246,-0.50434555183,-1.99961682783,0.633592866406,26.620714788,1.088307968
1591110227547053070,176.622821288,1151.09263986,-0.504333033357,-3.01461550825,0.626297052628,26.7717969393,1.201920768
1591110227551887997,176.626066684,1151.08519025,-0.504888232125,-4.02672040337,0.621729296759,26.9396431394,1.206755584
1591110227583518770,176.62991692,1151.07727673,-0.505283693314,-5.00875704701,0.616455230728,27.1249724175,1.238386432
1591110227630260288,176.633857599,1151.06923078,-0.506062375701,-5.9196889985,0.616284864749,27.3232708768,1.285127936
1591110227683781473,176.637923393,1151.0609024,-0.505665701759,-6.73856097654,0.611391119304,27.5304885611,1.338649088
1591110227734211148,176.641765177,1151.05273295,-0.504668356955,-7.42334473765,0.60862131296,27.7382714517,1.389078784
1591110227784937731,176.645479177,1151.04521316,-0.504717290307,-7.96220011803,0.60437098181,27.9346875984,1.43980544
1591110227832066010,176.648845385,1151.03805943,-0.504430439451,-8.32737909707,0.60232873846,28.1259748721,1.48693376
1591110227885404019,176.651369584,1151.03156355,-0.503439396888,-8.51256652883,0.596569727654,28.3037355714,1.540271616
1591110227934281448,176.653527379,1151.02637329,-0.503477590327,-8.5165916353,0.601919531994,28.4729374141,1.589149184
1591110227984605041,176.65545137,1151.02245343,-0.50302321843,-8.34087863362,0.608497348579,28.6313526511,1.63947264
1591110228035978830,176.656855622,1151.01968179,-0.502692920358,-7.99388369129,0.619905466303,28.7828121775,1.690846464
1591110228087541942,176.657688662,1151.01745293,-0.502928232938,-7.48829672052,0.6381338312,28.9273434705,1.742409728
1591110228132970777,176.658160989,1151.01593811,-0.501916295696,-6.83259097329,0.662417977698,29.0709489389,1.787838464
1591110228187572746,176.658697256,1151.01514722,-0.501538510571,-6.04528320787,0.692360349606,29.2160238082,1.842440448
1591110228233079898,176.658471028,1151.01495431,-0.500562379866,-5.14865775292,0.725180177475,29.3618590502,1.88794752
1591110228350809856,176.657860285,1151.01539497,-0.499672960498,-4.17071358681,0.749136319761,29.5039526892,2.005677568
1591110228466422294,176.657226233,1151.01620041,-0.500310598826,-3.14132243363,0.77618930039,29.6478630195,2.121289984
1591110228470739040,176.656155327,1151.01739016,-0.499454837297,-2.08171761204,0.799148163029,29.7870621999,2.125606656
1591110228470750871,176.654981331,1151.01891942,-0.499691104318,-1.02969246636,0.815306598103,29.9207718682,2.125618688
1591110228493473631,176.653843652,1151.02069366,-0.500140204151,-0.010994319386,0.82798930101,30.0522598943,2.148341248
1591110228533240323,176.65264979,1151.02249845,-0.499765936481,0.945710584123,0.832175311933,30.1714442278,2.188108032
1591110228584908701,176.650922505,1151.02416011,-0.498618415356,1.81475674006,0.838618378592,30.2800310426,2.239776512
1591110228634026771,176.649252553,1151.02565329,-0.498922230032,2.57187285713,0.84571407925,30.3727683384,2.288894464
1591110228775703226,176.647765833,1151.02704365,-0.499549170444,3.18818205772,0.843963815692,30.4485937621,2.430571008
1591110228795140453,176.646200435,1151.02810054,-0.499980536213,3.6555508601,0.839575402577,30.5133969091,2.450008064
1591110228813223859,176.644865518,1151.0290289,-0.499321055941,3.96088181462,0.824177982607,30.5656396927,2.468091648
1591110228832949637,176.643730927,1151.02996948,-0.499539318742,4.09328537623,0.807289917499,30.6101672667,2.487817472
1591110228882539519,176.642514322,1151.03034247,-0.499853201416,4.05257940824,0.786851190617,30.6527267889,2.537407232
1591110228935055955,176.641509866,1151.03019456,-0.500194541707,3.83632155147,0.764094710942,30.6884021518,2.589923584
1591110228984857682,176.640504373,1151.02968755,-0.501878741396,3.44834672334,0.745107857528,30.7245935587,2.639725312
1591110229032367113,176.639320008,1151.02849791,-0.502436830904,2.90750507988,0.732026529172,30.7564575339,2.687234816
1591110229086640796,176.638386169,1151.02651908,-0.502381349961,2.22942927516,0.72048412235,30.7952752692,2.741508608
1591110229130650686,176.637813118,1151.02420856,-0.503276991331,1.43807327592,0.711410996923,30.8338700565,2.785518336
1591110229183227555,176.637856556,1151.02143473,-0.504262399303,0.564057971238,0.710363547516,30.8813582306,2.83809536
1591110229232594089,176.63781988,1151.01791475,-0.503831876933,-0.364679871185,0.711339568974,30.9294756694,2.887461888
1591110229291300118,176.637918018,1151.01438083,-0.504942064076,-1.32512076753,0.71256286442,30.9812149807,2.946167808
1591110229332661879,176.638228217,1151.01077717,-0.505111581554,-2.28352162016,0.715464882975,31.0373540776,2.987529472
1591110229389013405,176.638383696,1151.00670682,-0.504677242692,-3.21633573785,0.716303702924,31.1025641486,3.043881216
1591110229432414925,176.638300653,1151.0027364,-0.504939053056,-4.0887846086,0.716290164492,31.1689526463,3.087282688
1591110229487354266,176.638209901,1150.9990022,-0.505140463486,-4.8838719745,0.713526237657,31.2357833136,3.14222208
1591110229533294522,176.637999765,1150.99557548,-0.503917912007,-5.58078053716,0.708523934528,31.2964982239,3.188162304
1591110229585878354,176.637269899,1150.99276217,-0.503343705871,-6.15112806906,0.705947187162,31.3533956302,3.240745984
1591110229632108690,176.636092733,1150.99035953,-0.50266326286,-6.586128366,0.70059693063,31.4101288025,3.286976512
1591110229685133942,176.634964466,1150.98851349,-0.501930419177,-6.88188781071,0.693785255024,31.4582682596,3.340001536
1591110229733614407,176.633361411,1150.98746135,-0.501166443383,-7.0242167257,0.674983206744,31.5030222133,3.388482048
1591110229786795607,176.631521367,1150.98696972,-0.501375091914,-7.01264707643,0.660010312106,31.5504347416,3.441663232
1591110229831374962,176.629458371,1150.98723853,-0.501152549571,-6.84505013968,0.637888922326,31.5917050544,3.48624256
1591110229966235887,176.627213471,1150.98822462,-0.501633876223,-6.52931982294,0.616757340418,31.635674214,3.621103616
1591110229974184009,176.624934716,1150.9897168,-0.502943023023,-6.07458909583,0.604283931877,31.6738660513,3.629051648
1591110230090784257,176.62207401,1150.99188328,-0.504168485285,-5.48463061021,0.594911445618,31.7162187253,3.745651968
1591110230099056739,176.618623949,1150.99431395,-0.504358510161,-4.78020238284,0.587787378572,31.757443896,3.753924352
1591110230099067207,176.614973574,1150.99707302,-0.504402569096,-3.98774936404,0.591617428688,31.7980841947,3.753934848
1591110230216008164,176.611166034,1151.00020072,-0.504295734295,-3.12185679047,0.596818332433,31.8368040178,3.870875904
1591110230221309948,176.60764003,1151.00357613,-0.505031021862,-2.21558250925,0.605853609265,31.8801909283,3.876177664
1591110230234063885,176.604203739,1151.00694468,-0.504365484591,-1.29306280353,0.622553268923,31.9270874015,3.888931584
1591110230289586215,176.600543606,1151.01043387,-0.504298029366,-0.385823999948,0.649483425225,31.965065027,3.944453888
1591110230334091630,176.59686732,1151.01402332,-0.503142360111,0.477683475461,0.674605610835,32.0042187013,3.988959232
1591110230383721927,176.593151474,1151.01724704,-0.500897727488,1.27485814161,0.70442610214,32.0407840578,4.038589696
1591110230430326881,176.589644511,1151.02057887,-0.499462049575,1.97766413728,0.729493053861,32.0732351482,4.085194496
1591110230582091496,176.58643081,1151.0237587,-0.497660765461,2.55792648756,0.7585027361,32.1033281213,4.236959232
1591110230588207493,176.583077529,1151.02644111,-0.496083853193,3.01675865619,0.786900694685,32.1266560701,4.243075328
1591110230588232589,176.579775096,1151.02892536,-0.495994621476,3.33469538734,0.808432727279,32.1530618455,4.243100416
1591110230632957689,176.57691866,1151.03100136,-0.49503593234,3.50073784429,0.830380788804,32.1692371828,4.287825408
1591110230690528889,176.573783768,1151.03254257,-0.493983911599,3.51705784969,0.844600598468,32.1883029502,4.34539648
1591110230734298589,176.570941544,1151.03364884,-0.494251133165,3.38153433192,0.846245762993,32.2055223911,4.389166336
1591110230894262610,176.568545493,1151.03418804,-0.494474403135,3.10315102563,0.838546054643,32.2212806171,4.54913024
1591110230972857741,176.566144162,1151.0339647,-0.495023707889,2.69327840173,0.811303788779,32.2374370222,4.627725568
1591110230972908371,176.564073191,1151.03338103,-0.49542277101,2.16622415652,0.780790032805,32.2548706365,4.627776
1591110231019211192,176.562665633,1151.03256327,-0.497636336316,1.53983492277,0.740499874196,32.2724443726,4.674078976
1591110231024070608,176.561490322,1151.03131127,-0.499064215168,0.828247766583,0.698376378831,32.2861866949,4.678938368
1591110231032045813,176.560391679,1151.0297217,-0.500118071351,0.0557911089076,0.656797535933,32.2987345445,4.686913536
1591110231146826936,176.55914353,1151.02806649,-0.501813467728,-0.744617311691,0.617987827619,32.3087839962,4.80169472
1591110231156568516,176.557645121,1151.02632719,-0.503815584681,-1.5508340354,0.590900183703,32.3121399194,4.811436288
1591110231301878330,176.556044744,1151.02434742,-0.504593840233,-2.33906334729,0.58084500248,32.3094936379,4.956745984
1591110231384588404,176.554311613,1151.02271013,-0.504167323909,-3.07648631607,0.578661850619,32.3019205335,5.039456
1591110231384603918,176.552532758,1151.02158589,-0.505391394554,-3.74888656552,0.589115850117,32.2884494656,5.039471616
1591110231444386362,176.550354594,1151.02066117,-0.504207776208,-4.33026216834,0.605690095214,32.2708754782,5.099254016
1591110231444412233,176.547862677,1151.02043868,-0.502575515685,-4.80320407328,0.6231787047,32.2428754215,5.099279872
1591110231504598439,176.544837243,1151.02092096,-0.501642232945,-5.15644629438,0.637239311335,32.2147266479,5.15946624
1591110231550107516,176.541806486,1151.02197865,-0.500676826138,-5.38070597044,0.644859717552,32.1798077542,5.204975104
1591110231550123583,176.53864486,1151.02365157,-0.500225051487,-5.46941408071,0.643625224559,32.1452357521,5.204991232
1591110231582931569,176.534909923,1151.02580029,-0.500504674534,-5.41901520102,0.638379973136,32.1152209605,5.237799168
1591110231729775830,176.531159818,1151.0282063,-0.499729322714,-5.23472548847,0.621739709715,32.0870861483,5.384643584
1591110231805809278,176.527183244,1151.03108183,-0.499866894012,-4.9267172798,0.608670003418,32.056042097,5.460676864
1591110231953762523,176.522968646,1151.0347642,-0.500997012871,-4.49929705479,0.595723350709,32.0254781533,5.608630272
1591110231953997122,176.519084974,1151.03860717,-0.501648430015,-3.97280865481,0.588113295283,31.9937366276,5.608864768
1591110231994218496,176.514887814,1151.04279666,-0.502365018554,-3.35889503428,0.584519307111,31.9562104858,5.649086208
1591110231994235008,176.510155355,1151.0475677,-0.502691588675,-2.67599624649,0.593738373924,31.9097766111,5.649102592
1591110231994297977,176.505403356,1151.05239602,-0.501858319434,-1.94384844701,0.615906935122,31.8572271809,5.649165568
1591110232118456806,176.500534656,1151.05735198,-0.500716333924,-1.18879956758,0.643875212846,31.8013175327,5.773324544
1591110232134460636,176.495652972,1151.06254467,-0.499763049677,-0.427857274628,0.682006828443,31.7424899868,5.789328384
1591110232134471786,176.490943098,1151.06776383,-0.49798088939,0.316490699234,0.718216247107,31.6750464641,5.789339392
1591110232158594370,176.486141369,1151.07320712,-0.496318096822,1.0278912854,0.756424808777,31.6043613963,5.813462016
1591110232283496842,176.481020129,1151.07870479,-0.493797703712,1.67461300767,0.796915210902,31.5289713333,5.938364672
1591110232408439330,176.476360802,1151.08432335,-0.492611324668,2.24583317048,0.830003907775,31.4503795471,6.063307008
1591110232408497917,176.471595806,1151.08996702,-0.491769313881,2.7202305233,0.849196969084,31.3667671746,6.063365632
1591110232584856197,176.466750413,1151.0953943,-0.490825266078,3.08322875646,0.860220232178,31.2834803861,6.239724032
1591110232584872680,176.462196488,1151.10088204,-0.490387440101,3.32374876704,0.862106599938,31.1944348308,6.239740416
1591110232584920949,176.458006423,1151.10569137,-0.490229987441,3.43253044939,0.849213628647,31.1054423211,6.239788544
1591110232701701356,176.454127976,1151.10972598,-0.491172752183,3.40890671394,0.829776671112,31.015220799,6.356569088
1591110232701749001,176.450457027,1151.11301263,-0.492346832682,3.25333976845,0.801741057581,30.927916903,6.356616704
1591110232701768698,176.447110031,1151.11581719,-0.492781449213,2.97497749542,0.772107835598,30.8329921602,6.356636416
1591110232776125169,176.443885557,1151.11851049,-0.494605766069,2.58195536498,0.740856944217,30.733931086,6.430992896
1591110232776151228,176.440836673,1151.12065259,-0.494781909339,2.09031732427,0.715386175036,30.6306291108,6.431019008
1591110232887821325,176.438024872,1151.12252467,-0.496801377419,1.51319263602,0.691017530389,30.523079716,6.542689024
1591110232992302852,176.434796936,1151.12450026,-0.498042652584,0.868437771368,0.673054792591,30.4077877836,6.64717056
1591110232992315552,176.431778007,1151.12640347,-0.498795364772,0.181108898186,0.663487796293,30.2872108174,6.64718336
1591110232992374265,176.428534478,1151.12803261,-0.498708388684,-0.532674410197,0.65797657438,30.162210043,6.647241984
1591110233011465015,176.425739425,1151.13003976,-0.500010340142,-1.24528477034,0.655330288196,30.0374941284,6.666332672
1591110233011471893,176.422491733,1151.13218026,-0.49937595247,-1.94140278895,0.653827107983,29.906964628,6.666339584
1591110233123894094,176.419090454,1151.13435088,-0.49957283195,-2.59857274508,0.6566467585,29.781799756,6.778761728
1591110233260429604,176.41573655,1151.13687916,-0.499719151301,-3.20042009219,0.651211910444,29.6565461551,6.91529728
1591110233293992395,176.412368094,1151.13962984,-0.499390998586,-3.72740136538,0.637537492727,29.5263297114,6.94886016
1591110233294389078,176.408691396,1151.1429441,-0.498908287925,-4.15646680228,0.626416541868,29.3962126115,6.949256704
1591110233294438643,176.404938539,1151.14657385,-0.499310630741,-4.47188081198,0.614649228076,29.2682995869,6.949306368
1591110233425153323,176.401507052,1151.15034125,-0.500163564609,-4.66914592964,0.59658733859,29.1351267051,7.080020992
1591110233554471999,176.397984975,1151.15467339,-0.501230987619,-4.73986264338,0.583097987916,29.0086874099,7.209339648
1591110233554517487,176.394280766,1151.15938569,-0.501937384394,-4.67308267916,0.574949621439,28.8737163245,7.209385216
1591110233661323657,176.390427366,1151.16447517,-0.503344098709,-4.46928309424,0.573271255826,28.7359176791,7.316191488
1591110233661387635,176.386349596,1151.17007583,-0.504109574025,-4.13993595357,0.577016754459,28.5970248055,7.316255232
1591110233661407602,176.381908019,1151.17629641,-0.503447534693,-3.68651907877,0.596447037929,28.4491594803,7.3162752
