%time,field.pos_north,field.pos_east,field.pos_heading,field.vel_north,field.vel_east,field.vel_heading,field.acc_north,field.acc_east,field.acc_heading,secs_since_start
1591109737356043831,176.573802165,1150.94194442,25.9467576872,0.000995753853365,0.000894552589858,1.15083132795e-10,-0.000526319190588,-0.000472827891565,-1.50471461381e-10,0.0
1591109737356192951,176.573901672,1150.94203381,25.9467576872,0.000943158249455,0.000847302425039,1.00046368937e-10,-0.000498799526078,-0.000448105127928,-1.30862250589e-10,0.000149248
1591109737356236142,176.573996039,1150.94211859,25.9467576872,0.000893251348878,0.000802467703076,8.69530739604e-11,-0.000472669309627,-0.000424630598837,-1.13779809142e-10,0.000192256
1591109737356551332,176.574085257,1150.94219874,25.9467576872,0.000846041147645,0.00076005560732,7.5588748889e-11,-0.000447934740793,-0.000402409873772,-9.89444455659e-11,0.000507648
1591109737356665065,176.574169857,1150.94227474,25.9467576873,0.000801249852203,0.000719816577159,6.56947855723e-11,-0.000424452219942,-0.000381313947535,-8.60205721763e-11,0.000621312
1591109737356740874,176.574249961,1150.9423467,25.9467576873,0.000758815701193,0.000681695128214,5.70949720287e-11,-0.000402191118624,-0.000361315304528,-7.47834236813e-11,0.000697088
1591109737356787087,176.57432582,1150.94241485,25.9467576873,0.000718608230357,0.000645574055677,4.96187941931e-11,-0.000381084678441,-0.000342353971199,-6.50105003078e-11,0.000743424
1591109737356868941,176.574397649,1150.94247938,25.9467576873,0.000680516970955,0.000611354118057,4.31206798076e-11,-0.000361076486408,-0.000324379267971,-5.65108092066e-11,0.000825088
1591109737356917700,176.57446567,1150.94254049,25.9467576873,0.00064442554117,0.000578930761748,3.74721372429e-11,-0.000342106891312,-0.000307337606153,-4.91212486439e-11,0.000873984
1591109737356990570,176.574530078,1150.94259835,25.9467576873,0.000610232992014,0.000548213297491,3.25626169979e-11,-0.000324124220957,-0.000291182565144,-4.26948486607e-11,0.000946688
1591109737357056518,176.574591092,1150.94265316,25.9467576873,0.000577825392018,0.000519099372993,2.82937673167e-11,-0.000307069854415,-0.00027586148182,-3.71029933508e-11,0.001012736
1591109737357120559,176.574648847,1150.94270505,25.9467576873,0.000547133444148,0.000491526734072,2.45852849589e-11,-0.00029090854087,-0.000261342688009,-3.22454857416e-11,0.001076736
1591109737357195489,176.574703495,1150.94275414,25.9467576873,0.000518077227447,0.000465423582362,2.13645757334e-11,-0.000275599356564,-0.000247589419144,-2.80254675095e-11,0.001151744
1591109737357287235,176.574755335,1150.94280071,25.9467576873,0.000490500233992,0.000440649316281,1.85602943892e-11,-0.000261060912556,-0.000234528558072,-2.43464706476e-11,0.001243392
1591109737357433738,176.574804362,1150.94284476,25.9467576873,0.000464406429262,0.000417207498285,1.61267931626e-11,-0.000247296286594,-0.000222162869741,-2.11534250027e-11,0.00139008
1591109737357531656,176.574850804,1150.94288648,25.9467576873,0.000439675821866,0.000394990332047,1.40113669424e-11,-0.000234243146468,-0.000210436356939,-1.83811438267e-11,0.001487872
1591109737357643236,176.574894781,1150.94292599,25.9467576873,0.000416246559094,0.000373942251119,1.21728642785e-11,-0.000221869726948,-0.000199320482827,-1.59672291295e-11,0.001599488
1591109737357792288,176.574936425,1150.9429634,25.9467576873,0.00039404939827,0.000354001050156,1.05754081597e-11,-0.000210140292531,-0.000188783143801,-1.3869644727e-11,0.00174848
1591109737357909725,176.574975792,1150.94299877,25.9467576873,0.000373055329395,0.000335140667524,9.18976110851e-12,-0.000199040305436,-0.000178811279596,-1.20520955073e-11,0.001865984
1591109737358046961,176.575013066,1150.94303225,25.9467576873,0.000353168021961,0.000317274563057,7.98556415927e-12,-0.000188519588159,-0.000169359812387,-1.04682389089e-11,0.0020032
1591109737358168551,176.575048298,1150.9430639,25.9467576873,0.000334361297375,0.000300379218767,6.94125206429e-12,-0.000178564989432,-0.00016041692751,-9.09499778393e-12,0.0021248
1591109737358377007,176.575081781,1150.94309398,25.9467576873,0.000316479995279,0.000284315243677,6.03048896648e-12,-0.000169095026006,-0.000151909423092,-7.89490012459e-12,0.002333184
1591109737358642121,176.575113393,1150.94312238,25.9467576873,0.000299589618302,0.000269141483201,5.24189191281e-12,-0.000160144969234,-0.00014386898575,-6.85539969914e-12,0.0025984
1591109737358780237,176.575143355,1150.9431493,25.9467576873,0.000283573838479,0.000254753432111,4.55629702522e-12,-0.000151653770914,-0.00013624077179,-5.95586678063e-12,0.002736384
1591109737358967850,176.575171701,1150.94317476,25.9467576873,0.000268414080198,0.000241134402686,3.96093101349e-12,-0.000143612110209,-0.000129016407672,-5.17755546776e-12,0.002924032
1591109737359148222,176.575198531,1150.94319887,25.9467576873,0.000254059046036,0.000228238311006,3.44339815706e-12,-0.000135993284848,-0.000122171904956,-4.5022962122e-12,0.003104512
1591109737359396650,176.575223904,1150.94322166,25.9467576873,0.000240477660619,0.000216037239975,2.99376257259e-12,-0.000128781279243,-0.000115692875759,-3.91022303797e-12,0.003352832
1591109737359606071,176.575248003,1150.94324331,25.9467576873,0.000227571850104,0.000204443083268,2.60189973433e-12,-0.000121924452666,-0.000109532927745,-3.39896543427e-12,0.00356224
1591109737359889366,176.575270709,1150.94326371,25.9467576873,0.000215407061136,0.000193514636004,2.26277418311e-12,-0.000115457984669,-0.000103723665078,-2.95850581678e-12,0.003845632
1591109737360093110,176.57529228,1150.94328309,25.9467576873,0.000203844977502,0.000183127639436,1.96650630883e-12,-0.000109308761402,-9.81994046602e-05,-2.57120485502e-12,0.004049408
1591109737361456413,176.575312625,1150.94330137,25.9467576873,0.000192935195329,0.000173326649098,1.70988200415e-12,-0.000103503514371,-9.29841612064e-05,-2.23598642253e-12,0.005412608
1591109737361647454,176.575331912,1150.94331869,25.9467576873,0.00018258835792,0.000164031389865,1.48635927543e-12,-9.79950572058e-05,-8.80355440311e-05,-1.94601831553e-12,0.005603584
1591109737361913186,176.57535017,1150.94333509,25.9467576873,0.000172789352185,0.000155228284633,1.29176737277e-12,-9.27756579413e-05,-8.33466069896e-05,-1.69667555101e-12,0.005869312
1591109737362098901,176.575367436,1150.94335061,25.9467576873,0.000163518652266,0.00014689979201,1.12222538036e-12,-8.78352212236e-05,-7.8908280743e-05,-1.47928660891e-12,0.006055168
1591109737362373610,176.575383801,1150.94336531,25.9467576873,0.000154728102159,0.000139002650226,9.74178356904e-13,-8.31483703311e-05,-7.46977676826e-05,-1.28830063606e-12,0.006329856
1591109737362558418,176.57539925,1150.94337919,25.9467576873,0.000146425901018,0.000131544225128,8.45544073772e-13,-7.87197435272e-05,-7.07192346695e-05,-1.11808197674e-12,0.006514688
1591109737365426361,176.575413906,1150.94339235,25.9467576873,0.000138546614555,0.000124465732702,7.33632019836e-13,-7.45146939333e-05,-6.6941556087e-05,-9.71640561301e-13,0.009382656
1591109737365562254,176.575427736,1150.94340478,25.9467576873,0.000131108405471,0.00011778348972,6.36640872611e-13,-7.05431466082e-05,-6.33736482826e-05,-8.40834899438e-13,0.009518592
1591109737365692519,176.575440845,1150.94341655,25.9467576873,0.000124055426223,0.000111447324582,5.52573300038e-13,-6.67755125296e-05,-5.99889294471e-05,-7.28900568318e-13,0.00964864
1591109737443435709,176.575453245,1150.94342769,25.9467576873,0.000117380953999,0.000105451197736,4.79716852923e-13,-6.32084035664e-05,-5.67843557939e-05,-6.34799559883e-13,0.087392
1591109737544078355,176.575465004,1150.94343826,25.9467576873,0.000111048681497,9.9762491892e-05,4.16122084335e-13,-5.98226091827e-05,-5.37426692125e-05,-5.5195557345e-13,0.18803456
1591109737643507327,176.575476078,1150.94344821,25.9467576873,0.000105082871317,9.44030037743e-05,3.61078310351e-13,-5.66312865073e-05,-5.08756896312e-05,-4.80907065046e-13,0.287463424
1591109737744478715,176.575486584,1150.94345764,25.9467576873,9.94213277948e-05,8.93168588391e-05,3.13001064599e-13,-5.36013482023e-05,-4.81536924698e-05,-4.21129373699e-13,0.388434944
1591109737843792103,176.575496538,1150.94346659,25.9467576873,9.40546549531e-05,8.44956160481e-05,2.70836759997e-13,-5.07279186394e-05,-4.55722976319e-05,-3.66357106125e-13,0.487748352
1591109737944741747,176.575505935,1150.94347503,25.9467576873,8.8986318695e-05,7.9942389055e-05,2.34233227777e-13,-4.8013005032e-05,-4.31333083274e-05,-3.15512928652e-13,0.588697856
1591109738043803574,176.575514834,1150.94348302,25.9467576873,8.41848739571e-05,7.56289286466e-05,2.02680987087e-13,-4.54399111792e-05,-4.08217252392e-05,-2.72256085556e-13,0.687759872
1591109738143934908,176.575523245,1150.94349058,25.9467576873,7.96451989929e-05,7.15506336135e-05,1.75481239038e-13,-4.30060257541e-05,-3.86352024339e-05,-2.35396695784e-13,0.7878912
1591109738243984618,176.57553121,1150.94349773,25.9467576873,7.5344344183e-05,6.76868867709e-05,1.51940188835e-13,-4.06991720761e-05,-3.65628007816e-05,-2.04861580033e-13,0.887940864
1591109738344189434,176.575538741,1150.9435045,25.9467576873,7.12762162895e-05,6.40322141538e-05,1.31463037445e-13,-3.85161989046e-05,-3.46016893101e-05,-1.79428329072e-13,0.988145664
1591109738444062048,176.575545864,1150.9435109,25.9467576873,6.74269876463e-05,6.05741934409e-05,1.13531344202e-13,-3.64497988772e-05,-3.2745303328e-05,-1.61628280738e-13,1.088018176
1591109738544394903,176.575552602,1150.94351695,25.9467576873,6.37844097601e-05,5.73018209874e-05,9.73791672533e-14,-3.44935015298e-05,-3.09878299817e-05,-1.46371678829e-13,1.188351232
1591109738643915513,176.575558978,1150.94352268,25.9467576873,6.03365103016e-05,5.42043412456e-05,8.27481553295e-14,-3.26409750265e-05,-2.93235809578e-05,-1.28568063437e-13,1.287871744
1591109738744409400,176.575565026,1150.94352811,25.9467576873,5.70645792214e-05,5.12649457208e-05,6.9860493661e-14,-3.08822564066e-05,-2.77436058593e-05,-1.0943893686e-13,1.388365568
1591109738844367088,176.575570724,1150.94353323,25.9467576873,5.39808331714e-05,4.84946094521e-05,5.89324745156e-14,-2.92239977622e-05,-2.6253880703e-05,-9.0383289876e-14,1.488323328
1591109738945983822,176.575576112,1150.94353807,25.9467576873,5.1063954477e-05,4.58741813406e-05,4.99112209996e-14,-2.76548230771e-05,-2.4844185657e-05,-7.2605832915e-14,1.589939968
1591109739046152245,176.575581218,1150.94354266,25.9467576873,4.82989693135e-05,4.33902093929e-05,4.26519429258e-14,-2.61667526686e-05,-2.35073520317e-05,-5.73419148954e-14,1.690108416
1591109739144861717,176.575586046,1150.943547,25.9467576873,4.56832073835e-05,4.10402947016e-05,3.6919752926e-14,-2.47584190375e-05,-2.22421513076e-05,-4.46241367938e-14,1.78881792
1591109739244116948,176.575590613,1150.9435511,25.9467576873,4.32078636817e-05,3.88165271392e-05,3.2458237197e-14,-2.34251491294e-05,-2.10443853671e-05,-3.31764439694e-14,1.888073216
1591109739347529903,176.575594939,1150.94355499,25.9467576873,4.08628433419e-05,3.67098378092e-05,2.91370444276e-14,-2.21615682014e-05,-1.99092257232e-05,-2.42613659649e-14,1.991486208
1591109739447478376,176.575599017,1150.94355865,25.9467576873,3.86509843075e-05,3.47227762265e-05,2.67156128299e-14,-2.09692651846e-05,-1.88380998118e-05,-1.66428380236e-14,2.091434496
1591109739544216542,176.575602889,1150.94356213,25.9467576873,3.65504551764e-05,3.28357297763e-05,2.50484697143e-14,-1.98365290312e-05,-1.78204868161e-05,-1.15452075992e-14,2.1881728
1591109739643926972,176.575606537,1150.94356541,25.9467576873,3.45705309299e-05,3.10570307975e-05,2.38961190979e-14,-1.87684120646e-05,-1.68609255778e-05,-7.73571613756e-15,2.287883264
1591109739744233900,176.575609997,1150.94356851,25.9467576873,3.2692022436e-05,2.93694404034e-05,2.31218602836e-14,-1.77546135982e-05,-1.59501622955e-05,-3.91565999397e-15,2.388190208
1591109739845832561,176.575613259,1150.94357144,25.9467576873,3.09206095459e-05,2.77780611862e-05,2.27311871468e-14,-1.67982441573e-05,-1.50909913725e-05,-2.64633908659e-15,2.489788672
1591109739944415566,176.575616356,1150.94357423,25.9467576873,2.92378790923e-05,2.62663513599e-05,2.24660954307e-14,-1.58894071012e-05,-1.42745219823e-05,-1.37191631443e-15,2.588371712
1591109740134478990,176.575619276,1150.94357685,25.9467576873,2.76511788005e-05,2.48409118799e-05,2.23290972405e-14,-1.50321099293e-05,-1.35043543298e-05,-1.01488284194e-16,2.778435328
1591109740707271704,176.575622039,1150.94357933,25.9467576873,2.61489763267e-05,2.34913824674e-05,2.2318955221e-14,-1.4220161995e-05,-1.27749269452e-05,1.16988004217e-15,3.351227904
1591109740707308911,176.575624659,1150.94358169,25.9467576873,2.47243848167e-05,2.22115761985e-05,2.24361550937e-14,-1.34498756988e-05,-1.20829270121e-05,2.44440594358e-15,3.351265024
1591109740707337466,176.575627128,1150.9435839,25.9467576873,2.33809986729e-05,2.10047221659e-05,2.26803046419e-14,-1.27232278436e-05,-1.14301304232e-05,2.44440594358e-15,3.351293696
1591109741319640966,176.575629463,1150.943586,25.9467576873,2.21102939329e-05,1.98631627215e-05,2.29244343751e-14,-1.20356412933e-05,-1.08124252263e-05,2.44440594358e-15,3.963597312
1591109741319716470,176.575631671,1150.94358799,25.9467576873,2.09085588359e-05,1.87835633416e-05,2.3168503498e-14,-1.13851374703e-05,-1.02280339352e-05,1.17411744116e-15,3.963672576
1591109741319753099,176.575633766,1150.94358987,25.9467576873,1.97677904847e-05,1.77587344857e-05,2.32861477531e-14,-1.07674116713e-05,-9.67308934709e-06,1.17411744116e-15,3.96370944
1591109741319784721,176.57563574,1150.94359164,25.9467576873,1.86922748755e-05,1.6792526552e-05,2.3403425858e-14,-1.01848102035e-05,-9.14969930461e-06,1.17411744116e-15,3.963740928
1591109741319856571,176.575637607,1150.94359332,25.9467576873,1.76753926136e-05,1.58789928936e-05,2.35206532952e-14,-9.63377361118e-06,-8.65466610941e-06,1.17411744116e-15,3.963812864
1591109741945166345,176.575639374,1150.94359491,25.9467576873,1.67122182959e-05,1.50137086902e-05,2.36380402934e-14,-9.11165597302e-06,-8.18561275396e-06,1.17411744116e-15,4.58912256
1591109741945189104,176.575641045,1150.94359641,25.9467576873,1.58009340862e-05,1.41950408573e-05,2.37554673218e-14,-8.61749309891e-06,-7.74167304346e-06,1.17411744116e-15,4.589145344
1591109741945221910,176.575642624,1150.94359783,25.9467576873,1.49401676828e-05,1.34217565639e-05,2.38727451467e-14,-8.15056144656e-06,-7.32219696462e-06,1.17411744116e-15,4.589178112
1591109741945231484,176.575644118,1150.94359917,25.9467576873,1.41248849557e-05,1.26893333133e-05,2.39901895308e-14,-7.70814966671e-06,-6.92474873471e-06,1.17411744116e-15,4.589187584
1591109741945241509,176.575645529,1150.94360044,25.9467576873,1.33547415088e-05,1.19974617111e-05,2.4107498988e-14,-7.29008868582e-06,-6.5491764665e-06,1.17411744116e-15,4.589197824
1591109741945253964,176.575646866,1150.94360164,25.9467576873,1.26249442414e-05,1.13418357928e-05,2.4225037709e-14,-6.89379371896e-06,-6.1931580731e-06,1.17411744116e-15,4.589210112
1591109741945279402,176.575648126,1150.94360277,25.9467576873,1.19369099987e-05,1.07237284055e-05,2.43422203573e-14,-6.52004997739e-06,-5.85739895973e-06,1.17411744116e-15,4.589235712
1591109742547381235,176.575649319,1150.94360384,25.9467576873,1.12853284471e-05,1.01383689196e-05,2.44595558481e-14,-6.16598849507e-06,-5.53932174059e-06,1.17411744116e-15,5.191337472
1591109742547413393,176.575650449,1150.94360485,25.9467576873,1.06682171255e-05,9.58397635742e-06,2.45770651763e-14,-5.830545593e-06,-5.23797084635e-06,1.17411744116e-15,5.191369728
1591109742547447279,176.575651515,1150.94360581,25.9467576873,1.00853146443e-05,9.06031589474e-06,2.46944462959e-14,-5.51359221628e-06,-4.95323033741e-06,1.17411744116e-15,5.19140352
1591109742547463828,176.575652524,1150.94360672,25.9467576873,9.53395463392e-06,8.56499215243e-06,2.4811858208e-14,-5.21369119651e-06,-4.68380910583e-06,1.17411744116e-15,5.19142016
1591109742547528001,176.575653477,1150.94360757,25.9467576873,9.01291417427e-06,8.09690649921e-06,2.49291959382e-14,-4.93018904594e-06,-4.42912007957e-06,1.17411744116e-15,5.19148416
1591109742547540491,176.575654377,1150.94360838,25.9467576873,8.52020135651e-06,7.65426946962e-06,2.50465347882e-14,-4.6620130453e-06,-4.18819956642e-06,-9.73145826773e-17,5.191496704
1591109742873860488,176.575655229,1150.94360915,25.9467576873,8.05420056848e-06,7.23562965042e-06,2.50368075155e-14,-4.40829412332e-06,-3.96026681611e-06,-1.36898926358e-15,5.517816832
1591109742873884948,176.575656034,1150.94360987,25.9467576873,7.613341097e-06,6.83957596466e-06,2.48998992543e-14,-4.16818669676e-06,-3.74456218305e-06,-2.64129788607e-15,5.517841152
1591109742873896058,176.575656795,1150.94361056,25.9467576873,7.19696008502e-06,6.46551292367e-06,2.46360468008e-14,-3.9413388548e-06,-3.54076952849e-06,-2.64129788607e-15,5.51785216
1591109742873906648,176.575657514,1150.9436112,25.9467576873,6.80296752867e-06,6.11156293628e-06,2.43720117242e-14,-3.72662060649e-06,-3.34787369832e-06,-1.36953220876e-15,5.517862912
1591109742873936453,176.575658194,1150.94361181,25.9467576873,6.43065589069e-06,5.77709037467e-06,2.42351872836e-14,-3.52365431754e-06,-3.16553544868e-06,-1.36953220876e-15,5.517892608
1591109742873955530,176.575658838,1150.94361239,25.9467576873,6.07784974003e-06,5.4601409024e-06,2.40980627693e-14,-3.33126152973e-06,-2.99269607946e-06,-1.36953220876e-15,5.517911808
1591109743101177662,176.575659445,1150.94361294,25.9467576873,5.74526319007e-06,5.1613560561e-06,2.39613313875e-14,-3.14983865202e-06,-2.8297117216e-06,-1.36953220876e-15,5.745133824
1591109743101216420,176.575660019,1150.94361345,25.9467576873,5.43035772719e-06,4.87845531801e-06,2.38244122555e-14,-2.97800786685e-06,-2.67534458531e-06,-1.36953220876e-15,5.745172736
1591109743817978958,176.575660562,1150.94361394,25.9467576873,5.13247344304e-06,4.6108458481e-06,2.36874206356e-14,-2.81541515698e-06,-2.5292766281e-06,-1.36953220876e-15,6.461935104
1591109743817985778,176.575661075,1150.9436144,25.9467576873,4.85106107532e-06,4.35803420759e-06,2.35505302376e-14,-2.66176658229e-06,-2.39124378899e-06,-1.36953220876e-15,6.461942016
1591109743817999692,176.57566156,1150.94361484,25.9467576873,4.58492465166e-06,4.11894597411e-06,2.34135977182e-14,-2.51641473377e-06,-2.26066445641e-06,-1.36953220876e-15,6.46195584
1591109743818013261,176.575662019,1150.94361525,25.9467576873,4.33335601343e-06,3.89294496118e-06,2.32766841371e-14,-2.37897800877e-06,-2.13719581105e-06,-1.36953220876e-15,6.461969408
1591109743818025910,176.575662451,1150.94361564,25.9467576873,4.09575337956e-06,3.67949054843e-06,2.31399008382e-14,-2.24913256396e-06,-2.02054692113e-06,-1.36953220876e-15,6.461982208
1591109743837458687,176.575662861,1150.94361601,25.9467576873,3.87097493264e-06,3.47755696473e-06,2.30030297049e-14,-2.12625904045e-06,-1.910161379e-06,-1.36953220876e-15,6.481414912
1591109743837465565,176.575663248,1150.94361635,25.9467576873,3.65814899021e-06,3.2863611189e-06,2.28659476385e-14,-2.00988512908e-06,-1.80561487243e-06,-1.36953220876e-15,6.481421824
1591109743837469618,176.575663614,1150.94361668,25.9467576873,3.45740937064e-06,3.10602322927e-06,2.27291640131e-14,-1.90008800946e-06,-1.7069767425e-06,-1.36953220876e-15,6.48142592
1591109743857940763,176.575663959,1150.94361699,25.9467576873,3.26739848582e-06,2.93532368294e-06,2.25922092902e-14,-1.79612903428e-06,-1.61358340782e-06,-1.36953220876e-15,6.50189696
1591109743945842500,176.575664286,1150.94361729,25.9467576873,3.08764914814e-06,2.7738427741e-06,2.24551520395e-14,-1.69775605715e-06,-1.5252083497e-06,-9.63439544175e-17,6.589798656
1591109744056204624,176.575664595,1150.94361756,25.9467576873,2.91821655011e-06,2.62163008598e-06,2.2445537109e-14,-1.60500267112e-06,-1.44188175161e-06,1.17330757321e-15,6.700160768
1591109744160291614,176.575664886,1150.94361783,25.9467576873,2.75773212522e-06,2.47745614295e-06,2.25628562851e-14,-1.51712292181e-06,-1.36293346776e-06,2.44540387076e-15,6.804247808
