%time,field.linear.x,field.linear.y,field.linear.z,field.angular.x,field.angular.y,field.angular.z,secs_since_start
1590610363072638995,152.319066398,1128.67364544,-2.12156840376,0.00213071392924,2.11939188522e-05,0.314514844693,0.0
1590610363121700232,152.319066452,1128.67364445,-2.12156840554,0.0019915158662,2.07250986393e-05,0.314475270473,0.049061376
1590610363172364101,152.319066504,1128.67364594,-2.12156840691,0.00172693239293,1.93481300646e-05,0.314386197093,0.099725056
1590610363221621648,152.319066545,1128.67364918,-2.12156841091,0.00153096442863,1.81064102251e-05,0.314305022743,0.148982784
1590610363270244993,152.319066583,1128.67365324,-2.12156841425,0.00137357686171,1.68644071465e-05,0.314220388482,0.197606144
1590610363318419019,152.319066659,1128.67365745,-2.12156841681,0.00117456895503,1.66842513359e-05,0.314071063294,0.245779968
1590610363371530561,152.319066802,1128.67366211,-2.12156841254,0.00105897152402,1.69256673404e-05,0.313955658271,0.29889152
1590610363417931133,152.319066975,1128.67366648,-2.12156840237,0.000978830849173,1.73083041322e-05,0.313853778871,0.345292032
1590610363477487506,152.319067159,1128.67367042,-2.12156838858,0.000918383108822,1.76820966731e-05,0.313758076489,0.40484864
1590610363525139090,152.319067326,1128.67367414,-2.12156837486,0.000939792488429,1.7397121671e-05,0.313620219926,0.452500224
1590610363583804526,152.319067562,1128.67391402,-2.1215683248,0.00123404846734,1.54697111495e-05,0.313521861508,0.51116544
1590610363641064982,152.319067748,1128.67405212,-2.12156830601,0.00122228366714,1.52932326291e-05,0.313444191847,0.568425984
1590610363666872268,152.319067885,1128.6741303,-2.12156829668,0.00119768757576,1.52661946994e-05,0.313381278305,0.594233344
1590610363715222733,152.319067987,1128.6741748,-2.12156829182,0.00126683367184,1.36635210949e-05,0.313303668852,0.642583808
1590610363765185232,152.319068039,1128.67419951,-2.12156829958,0.00134960467054,1.23092936088e-05,0.313255561932,0.692546304
1590610363815453017,152.319068063,1128.67421257,-2.12156831326,0.00145559873031,1.10680768571e-05,0.313224100178,0.742813952
1590610363877210026,152.319068071,1128.6742188,-2.12156832962,0.0015805754566,9.97451579098e-06,0.313204518244,0.804571136
1590610363925061640,152.319068061,1128.67422089,-2.12156834623,0.00187891507105,8.24290451465e-06,0.313203746376,0.852422656
1590610363989201533,152.31906803,1128.6742201,-2.12156836633,0.0021182043462,7.23691266035e-06,0.31321893934,0.916562432
1590610364018096890,152.319067984,1128.67421756,-2.12156838405,0.00232159860392,6.83688049273e-06,0.313248454346,0.94545792
1590610364075208263,152.319067942,1128.67421442,-2.12156839648,0.00251507031289,6.75402276913e-06,0.313292811753,1.002569216
1590610364124996444,152.319067852,1128.67421086,-2.1215684035,0.00277790674342,5.51977081437e-06,0.313388128335,1.052357376
1590610364166666204,152.319067687,1128.6742068,-2.12156841377,0.00294358050997,4.65783723254e-06,0.313465845311,1.094027264
1590610364214900299,152.319067492,1128.67420286,-2.12156842388,0.00306079281557,4.1529983752e-06,0.313537019908,1.142261248
1590610364265967133,152.319067297,1128.6741993,-2.12156843216,0.00317915531371,4.53466952225e-06,0.3136458192,1.193328128
1590610364318178982,152.31906712,1128.67419589,-2.12156843463,0.00322636215245,5.30240397966e-06,0.31372515242,1.245540096
1590610364368325294,152.319066963,1128.67419293,-2.12156843192,0.00322590764817,6.42259816675e-06,0.313789647975,1.2956864
1590610364422425113,152.31906674,1128.67395347,-2.12156846595,0.00292279311168,9.37485298332e-06,0.313844881268,1.349786112
1590610364481294454,152.319066571,1128.67381673,-2.12156846967,0.00288365868871,1.15995576829e-05,0.313914582632,1.40865536
1590610364517916058,152.31906646,1128.67373886,-2.12156846132,0.00288604650125,1.31822749584e-05,0.313958478128,1.445277184
1590610364565151001,152.319066401,1128.67369507,-2.12156845045,0.00285322137246,1.47479479053e-05,0.313987487986,1.492512
1590610364614717948,152.319066372,1128.67367109,-2.12156843851,0.00277636281366,1.62902452232e-05,0.31400577561,1.542078976
1590610364666637184,152.31906636,1128.67365877,-2.12156842626,0.00256772311783,1.83689777359e-05,0.314010660051,1.593998336
1590610364717819063,152.319066367,1128.67365348,-2.12156841074,0.00236012775302,1.97620158263e-05,0.314000942028,1.64518016
1590610364775996724,152.318536915,1128.67365271,-2.12156840989,0.00214610506163,0.000634618609576,0.31397830562,1.703357696
1590610364825791291,152.318235636,1128.67365432,-2.12156477632,0.0019251411689,0.0005065548938,0.313941638988,1.753152256
1590610364866810847,152.318065146,1128.67365735,-2.12156345882,0.00157930146448,0.000257900295136,0.313843326235,1.794171904
1590610364916889555,152.317969855,1128.67366158,-2.12156418372,0.00133812391159,5.77946589701e-05,0.313754956325,1.844250624
1590610364975706392,152.317917521,1128.67366605,-2.12156579201,0.0011424543443,-7.22459021959e-05,0.313664164016,1.903067392
1590610365025130060,152.317890364,1128.67367055,-2.12156748913,0.000898064316588,-0.000145428480787,0.313510795399,1.952491008
1590610365071675727,152.317877744,1128.67367537,-2.12156889467,0.000754086170414,-0.000179872908216,0.313392104345,1.999036672
1590610365126847800,152.317873732,1128.67367981,-2.12156990414,0.000673501944825,-0.000182965015381,0.313283673702,2.054208768
1590610365172693766,152.317874724,1128.67368368,-2.12157050427,0.000628797634039,-0.000168966536202,0.313177080757,2.100054784
1590610365223502406,152.31787869,1128.67368706,-2.12157076492,0.000627109046422,-0.000140004202467,0.312996537426,2.15086336
1590610365266071160,152.317884136,1128.67392722,-2.12157070116,0.000939239116241,-0.000114744092147,0.312855441239,2.193432064
1590610365317260284,152.317890013,1128.67406503,-2.1215705155,0.000948887729545,-9.04939998451e-05,0.312725291632,2.244621312
1590610365365927031,152.317896073,1128.67414397,-2.12157026542,0.000932350190285,-6.89263552085e-05,0.312597529248,2.293287936
1590610365416147550,152.317901942,1128.67418893,-2.12156999312,0.00103269555377,-5.374348049e-05,0.312380016111,2.34350848
1590610365483497858,152.317907553,1128.67421452,-2.12156974266,0.00114343970865,-4.23297955748e-05,0.312209729156,2.410859008
1590610365524189609,152.317912726,1128.67422853,-2.12156952306,0.00130500003019,-3.60914382629e-05,0.312059058802,2.45155072
1590610365583145972,152.317916984,1128.6742361,-2.12156934797,0.00149819137356,-3.62267186288e-05,0.311914368366,2.510507008
1590610365617942489,152.317922059,1128.67423791,-2.12156922663,0.0018446001549,-3.96423603964e-05,0.311709345689,2.545303552
1590610365666550908,152.317925707,1128.67423887,-2.12156915513,0.00212375251135,-4.32727223091e-05,0.311558168866,2.593911808
1590610365722353623,152.318457946,1128.67423822,-2.12156909417,0.00236335468699,-0.000658660991354,0.311434458834,2.649714688
1590610365777709139,152.31876204,1128.67423671,-2.1215726655,0.00258162266755,-0.000536513492588,0.311325957589,2.70507008
1590610365819075861,152.318935314,1128.67423482,-2.121573958,0.0028954721386,-0.000297622402362,0.311170024434,2.746436864
1590610365871195096,152.319033077,1128.67423297,-2.12157325298,0.0030994869313,-9.84522145691e-05,0.311057642608,2.79855616
1590610365923022438,152.319087296,1128.67423128,-2.12157163935,0.00324686292142,2.91346954766e-05,0.310965873718,2.85038336
1590610365974745139,152.319115917,1128.67422978,-2.12156993588,0.00340080856988,9.69023785601e-05,0.310842770101,2.902106112
1590610366020859923,152.319129229,1128.67422864,-2.12156855641,0.00345601069865,0.000129882064653,0.310758347946,2.948220928
1590610366074985770,152.319134628,1128.67422786,-2.12156757335,0.00347819216292,0.000144271989594,0.310690730305,3.002346752
1590610366121032276,152.31913493,1128.6742273,-2.12156693789,0.00345288028818,0.000142859269264,0.310635791802,3.048393216
1590610366172682840,152.319132499,1128.67398988,-2.12156664186,0.00308481787754,0.000137843230936,0.310570193545,3.100043776
1590610366216245517,152.319128173,1128.67385546,-2.12156653613,0.00302327879642,0.00012726359613,0.31053226643,3.143606528
1590610366278207110,152.319123513,1128.67377939,-2.12156657125,0.00300666550157,0.000117903676656,0.310509553647,3.205568256
1590610366326250704,152.319118725,1128.6737369,-2.1215666839,0.00295254926632,0.000111115832712,0.310498366612,3.253611776
1590610366381868252,152.319113725,1128.67371412,-2.1215667896,0.00273836973152,0.000112240925006,0.310501709471,3.309229312
1590610366416640859,152.319109091,1128.67370284,-2.12156692307,0.00255263444413,0.000111411484161,0.310516789784,3.344001792
1590610366467477246,152.319104728,1128.67369794,-2.121567042,0.00236733397241,0.000110240453565,0.310538992936,3.394838272
1590610366516505075,152.319100734,1128.67369681,-2.12156715118,0.00199512368783,0.000118343942528,0.31058523968,3.443866112
1590610366585878658,152.319097139,1128.67369767,-2.12156724468,0.00185684265672,0.000114489538961,0.310602615298,3.513239808
1590610366636753081,152.319093831,1128.6737,-2.12156727697,0.00165726626392,0.000113191459107,0.310628258007,3.564114176
1590610366689817726,152.319090768,1128.673703,-2.12156734701,0.00144211351505,0.000112126807812,0.310656498769,3.617178624
1590610366720111584,152.319087869,1128.67370624,-2.12156740691,0.00123993482189,0.000109231509609,0.310685128807,3.64747264
1590610366767633842,152.319085377,1128.67370932,-2.12156746572,0.000936824322921,0.000112042271487,0.310736501822,3.694994944
1590610366817446991,152.319083267,1128.67371225,-2.12156748113,0.000741889415333,0.000110652818366,0.310779922462,3.744807936
1590610366874217662,152.319081398,1128.67371482,-2.12156748966,0.000608164897985,0.000106291094505,0.310823926228,3.801578752
1590610366927464136,152.319079778,1128.67371689,-2.12156750443,0.000478933673293,9.99198565326e-05,0.310907078525,3.854825216
1590610366990364675,152.319078339,1128.6737183,-2.12156752644,0.000438411702357,9.12768650425e-05,0.31097750921,3.917725696
1590610367016752987,152.319077042,1128.67371913,-2.12156756318,0.000447169699905,8.1142007833e-05,0.311047753158,3.94411392
1590610367074295530,152.319075871,1128.67371944,-2.12156761529,0.000483751672786,7.02386758437e-05,0.311123558599,4.001656576
1590610367121668577,152.319074796,1128.67371924,-2.12156767838,0.000610653069681,5.38413079895e-05,0.3112639225,4.049029632
1590610367171149242,152.319073804,1128.67371814,-2.12156777989,0.000749106069331,4.03985238433e-05,0.311378721467,4.098510336
1590610367218380823,152.319072896,1128.67371658,-2.12156788809,0.000901305260072,2.84950155763e-05,0.311488166533,4.145741824
1590610367274758513,152.319072152,1128.67395165,-2.12156795251,0.00133974051029,1.61536879788e-05,0.31160059159,4.202119424
1590610367326718730,152.319071456,1128.67408442,-2.12156804108,0.00157457404186,3.53678696267e-06,0.311796657686,4.254079744
1590610367372360450,152.319070834,1128.67415806,-2.12156815115,0.00169762002798,-4.44204046939e-06,0.31195270283,4.299721472
1590610367418726195,152.31907025,1128.67419731,-2.12156825351,0.00181862709892,-9.4489263585e-06,0.312094193297,4.346087168
1590610367469572552,152.319069753,1128.67421757,-2.12156833658,0.00196365073653,-1.32572661295e-05,0.312235656154,4.396933632
1590610367518078873,152.31906933,1128.67422654,-2.12156841019,0.0022975644374,-1.52178963798e-05,0.312476348728,4.44544
1590610367571606277,152.319068989,1128.67422801,-2.12156847485,0.0025488283848,-1.51951818815e-05,0.312666690864,4.498967296
1590610367619469727,152.319068713,1128.6742258,-2.12156852591,0.00276459821726,-1.39813388708e-05,0.312842365218,4.546830848
1590610367668325663,152.319068378,1128.67398478,-2.12156860711,0.00278771226882,-8.92006681387e-06,0.313125188621,4.595686656
1590610367718453966,152.319068089,1128.67384411,-2.12156864356,0.0030367195705,-6.57322647514e-06,0.3133412305,4.64581504
1590610367777674307,152.319067833,1128.67376169,-2.12156867004,0.00327846292685,-4.6701478638e-06,0.313528587522,4.705035264
1590610367825421447,152.319067609,1128.67371306,-2.12156869226,0.00346640532951,-2.71111986135e-06,0.313702486747,4.752782592
1590610367867079151,152.319067414,1128.67368452,-2.12156870819,0.00359743831167,1.17099128014e-06,0.313962325317,4.794440192
1590610367917201506,152.319067253,1128.67366723,-2.12156870555,0.00360965809008,4.0659670043e-06,0.314147137346,4.844562432
1590610367973551661,152.319067116,1128.67365731,-2.12156869459,0.00354510124811,6.55898212503e-06,0.314295191325,4.90091264
1590610368020533265,152.319066996,1128.67365202,-2.12156867772,0.00343183205482,8.80366353799e-06,0.31441699279,4.947894272
1590610368074229192,152.31906689,1128.67364971,-2.12156865405,0.00318114081168,1.18990296006e-05,0.314555892214,5.001590272
1590610368116918159,152.319066854,1128.67364925,-2.12156861795,0.00294963881649,1.49484523904e-05,0.314637873166,5.044279296
1590610368170452816,152.319066915,1128.67365014,-2.12156857371,0.00271834391923,1.80305671318e-05,0.314686579707,5.09781376
1590610368217589213,152.319067023,1128.67365195,-2.12156852313,0.00248397500685,2.08253232475e-05,0.314713618107,5.144950272
1590610368266565787,152.319067147,1128.6736544,-2.12156846942,0.00210518839313,2.38915341013e-05,0.314712935738,5.193926912
1590610368317854540,152.319067289,1128.67365748,-2.1215684122,0.00182808681892,2.57768342424e-05,0.314696441821,5.245215488
1590610368387021000,152.319067453,1128.67366075,-2.12156836075,0.00159844206844,2.681138097e-05,0.314666852332,5.31438208
1590610368428745129,152.319067617,1128.67366403,-2.12156831841,0.0013954274574,2.70446756543e-05,0.314628193736,5.35610624
1590610368475059447,152.319067764,1128.67366728,-2.12156828715,0.00111126360674,2.54526156786e-05,0.314546514899,5.40242048
1590610368515673164,152.319067873,1128.67367074,-2.12156827406,0.000940164322921,2.32051210228e-05,0.314478319283,5.443034112
1590610368576768786,152.319067946,1128.67367391,-2.12156827571,0.000815486643952,2.04493055308e-05,0.314412542406,5.504129792
1590610368634846540,152.319067989,1128.67367675,-2.1215682895,0.000689352086334,1.51711795426e-05,0.314306085946,5.562207488
1590610368671651567,152.319068002,1128.67367954,-2.12156832577,0.00064474445755,1.11778465638e-05,0.314225495355,5.599012608
1590610368716755418,152.319067989,1128.67368189,-2.12156836719,0.00064017699848,7.4653949252e-06,0.314155473411,5.64411648
1590610368769661199,152.319067942,1128.67368375,-2.12156841003,0.00067202298292,4.07577987413e-06,0.314091144009,5.697022208
1590610368816286917,152.318538664,1128.67368533,-2.12156846497,0.00077598545019,0.000611724267238,0.313998476798,5.743648
1590610368875487113,152.31823734,1128.67368653,-2.12156490283,0.000885225543017,0.000481411083402,0.313934356651,5.802848256
1590610368922242256,152.318066501,1128.67392434,-2.12156359243,0.00128437358046,0.000230818814729,0.31388492543,5.849603328
1590610368975716535,152.317971077,1128.67405936,-2.12156433238,0.00136867348929,3.01783336695e-05,0.313845537792,5.903077632
1590610369016916072,152.317918672,1128.67413571,-2.12156595183,0.0015084697189,-9.91349717775e-05,0.31380319283,5.944276992
1590610369078670487,152.317891315,1128.67417801,-2.12156765311,0.00162117055606,-0.000171046073809,0.313781180661,6.006031616
1590610369126266651,152.317878636,1128.67420059,-2.12156906355,0.00176362232947,-0.000197601101279,0.313768535975,6.053627648
1590610369172906228,152.317875106,1128.67421147,-2.12157003817,0.00193089861014,-0.000193800025639,0.313762384803,6.100267264
1590610369219550061,152.317876105,1128.67421591,-2.12157058395,0.00211331220678,-0.000176544132252,0.313758502635,6.146910976
1590610369275638133,152.31787987,1128.6742165,-2.12157080272,0.00241172755748,-0.000145651274224,0.31375421995,6.20299904
1590610369326497435,152.317884985,1128.67421483,-2.12157075451,0.00263068702937,-0.000117604369098,0.313746934665,6.25385856
1590610369369542505,152.317890723,1128.6742121,-2.12157056918,0.00290364742989,-9.06473979571e-05,0.313719940137,6.296903424
1590610369420111192,152.317896578,1128.67420896,-2.12157030937,0.00307458680306,-7.00666114438e-05,0.313687330301,6.347472128
1590610369473450868,152.317902279,1128.67420595,-2.12157004122,0.00319182508694,-5.44033666581e-05,0.313645718132,6.400811776
1590610369519159187,152.317907588,1128.67420334,-2.12156979205,0.00326422865986,-4.47998612726e-05,0.313591910038,6.44652032
1590610369571133337,152.317912447,1128.67420129,-2.12156958012,0.00330636010676,-4.71393950056e-05,0.313467983638,6.498494464
1590610369618773430,152.317916775,1128.6739632,-2.12156949328,0.00302446210307,-4.63659647359e-05,0.313353962284,6.546134528
1590610369675930565,152.318449905,1128.67382773,-2.12156940086,0.00303510674221,-0.000658511028971,0.313233085032,6.603291648
1590610369718538188,152.318754714,1128.67375129,-2.12157293587,0.00307468626411,-0.000533488872962,0.313101658848,6.645899264
1590610369773210001,152.318929181,1128.67370891,-2.12157418852,0.00300627737034,-0.000296534740921,0.312853276715,6.700571136
1590610369819031930,152.319027077,1128.6736876,-2.12157345887,0.00290671987407,-9.8532576072e-05,0.312651919249,6.746392832
1590610369867936152,152.319081947,1128.67367776,-2.12157183266,0.00278690483605,3.25195289239e-05,0.31245833796,6.79529728
1590610369918780522,152.319111326,1128.67367471,-2.12157008973,0.00261628617139,0.000102256961775,0.312265432607,6.84614144
1590610369981475826,152.31912625,1128.6736756,-2.12156864257,0.00227445214501,0.000128352206617,0.31193893249,6.908836864
1590610370037858207,152.319132043,1128.67368003,-2.12156764147,0.00214581160406,0.000140964246307,0.311816167068,6.965219328
1590610370079524224,152.31913044,1128.67368543,-2.12156702042,0.00184835989687,0.000125686095684,0.311523354758,7.006885376
1590610370120642734,152.319128856,1128.67369133,-2.12156674992,0.00148106237687,0.000114252669313,0.311166998547,7.04800384
1590610370188850613,152.319125537,1128.67369567,-2.1215666147,0.00134756441513,0.000102927536025,0.311032619782,7.116211712
1590610370225210548,152.319121324,1128.67370277,-2.12156669513,0.0012032615998,9.2917577962e-05,0.310876797485,7.152571648
1590610370270244088,152.319116784,1128.67370878,-2.12156683395,0.000981482290651,9.04978963573e-05,0.310733079844,7.19760512
1590610370320349505,152.319112321,1128.67371408,-2.12156696563,0.000907539368746,8.15229086907e-05,0.310440041173,7.247710464
1590610370372589947,152.319107673,1128.67371765,-2.1215670859,0.000782460984186,9.24888404642e-05,0.310359763859,7.299950848
1590610370421045828,152.319103703,1128.67372254,-2.12156718835,0.000740984300738,8.96886253427e-05,0.310274593423,7.348406784
1590610370479206705,152.319100075,1128.67396314,-2.12156726724,0.000999277757855,8.89730661061e-05,0.310211465659,7.40656768
1590610370525185287,152.319096674,1128.67410071,-2.12156735609,0.000961305541176,9.20997860587e-05,0.310168828276,7.452546304
1590610370579763076,152.319093589,1128.6741789,-2.12156743227,0.00093283993904,0.000103613508586,0.310153383325,7.507124224
1590610370625409600,152.319090805,1128.67422273,-2.12156744084,0.000935683388345,0.000108690766398,0.310166571729,7.55277056
1590610370684718199,152.319088192,1128.67424632,-2.12156744031,0.000989487572823,0.000109427793637,0.310203752269,7.612079104
1590610370722292209,152.319085843,1128.67425831,-2.12156745393,0.00121552826045,0.000111397194815,0.310321691539,7.649653248
1590610370770186718,152.31908373,1128.67426205,-2.12156744669,0.00142030044837,0.000108217482432,0.31043713859,7.697547776
1590610370817583527,152.319081811,1128.67426155,-2.12156745389,0.00162300880811,0.000102251013563,0.310565018242,7.74494464
1590610370871426957,152.319080037,1128.67425863,-2.12156747756,0.00182679349262,9.42865934125e-05,0.31071126544,7.798788096
1590610370917800322,152.319078378,1128.67425425,-2.12156751165,0.00214882700607,8.12455845648e-05,0.310987564247,7.845161472
