%time,field.linear.x,field.linear.y,field.linear.z,field.angular.x,field.angular.y,field.angular.z,secs_since_start
1590609875116653412,152.392412279,1128.15676952,-2.12165900187,0.00159588003532,-1.53652627774e-05,0.184805480208,0.0
1590609875173026177,152.392416672,1128.15677708,-2.12165886087,0.00158307589505,-1.38717898943e-05,0.184594429674,0.056372992
1590609875220052765,152.392420638,1128.15678077,-2.12165874787,0.00161967686468,-1.51784682972e-05,0.184390263431,0.103399424
1590609875273258301,152.392424126,1128.15678206,-2.12165866112,0.00173220933147,-2.54389076468e-05,0.184064355602,0.156604928
1590609875329471404,152.392427222,1128.15678271,-2.12165863891,0.0018306589748,-3.02860735029e-05,0.183823086181,0.212818176
1590609875366476150,152.392430022,1128.15678263,-2.12165862273,0.00192264670529,-3.21795775743e-05,0.183617776349,0.24982272
1590609875416663568,152.39243246,1128.15678206,-2.12165859541,0.00205030698923,-3.87405483141e-05,0.183316750907,0.30001024
1590609875476485956,152.392434475,1128.1567819,-2.12165859413,0.00214342359376,-4.0367871024e-05,0.183092660529,0.359832576
1590609875525562390,152.392436221,1128.15678168,-2.12165858569,0.0022190049473,-3.88732654257e-05,0.182898014216,0.408909056
1590609875567911902,152.392437813,1128.1567813,-2.12165856727,0.00231334212008,-3.25917833745e-05,0.182604134388,0.451258624
1590609875616770528,152.392439217,1128.15678162,-2.12165852534,0.00236805718941,-2.5395952576e-05,0.182383087915,0.500117248
1590609875671509678,152.392440423,1128.15678213,-2.12165847084,0.00240242909642,-1.76459222801e-05,0.182189183195,0.554856448
1590609875716906888,152.392441528,1128.15678256,-2.12165841519,0.00241745750185,-8.89181100527e-06,0.182008373883,0.600253696
1590609875771568521,152.392442523,1128.15678312,-2.1216583589,0.00242629470326,4.7963750243e-06,0.181722731492,0.654915328
1590609875822035157,152.392443439,1128.1567844,-2.12165828022,0.00241622830126,1.54021920027e-05,0.181509558013,0.705381888
1590609875875456019,152.392444344,1128.1570227,-2.12165816605,0.00266681711932,2.33783768493e-05,0.181325782502,0.758802688
1590609875928528368,152.392445132,1128.15715896,-2.12165808743,0.00257846293561,3.14116285724e-05,0.181155689349,0.811875072
1590609875966386509,152.392445829,1128.15723664,-2.1216580252,0.00240256303865,4.13992283324e-05,0.180897954261,0.84973312
1590609876017302733,152.392446444,1128.15728142,-2.12165795517,0.00225522446325,4.77400931593e-05,0.180708153253,0.900649472
1590609876068111493,152.392446975,1128.15730682,-2.12165789617,0.00213903661838,5.18683527772e-05,0.180547002721,0.951458304
1590609876116671162,152.392447432,1128.15732087,-2.12165784721,0.00200968459083,5.50345427971e-05,0.180315536344,1.00001792
1590609876169223478,152.39244782,1128.15732888,-2.12165780005,0.00192186639973,5.60423458941e-05,0.180147034164,1.052570112
1590609876225514093,152.392448146,1128.15733301,-2.12165776111,0.00188294347687,5.58280299395e-05,0.180088519304,1.108860672
1590609876283544996,152.392448437,1128.15733395,-2.12165772829,0.00186705303995,5.53322238528e-05,0.179990085023,1.166891776
1590609876322026066,152.392448614,1128.15733316,-2.12165769407,0.00187510738059,5.12885227436e-05,0.179888987618,1.205372672
1590609876366131771,152.392448767,1128.15733204,-2.12165767767,0.0018851088952,4.82500894052e-05,0.17966501196,1.2494784
1590609876414977094,152.392448843,1128.15733147,-2.12165766356,0.00189183400303,4.45295857388e-05,0.179531057867,1.298323712
1590609876467157436,152.392448807,1128.1573307,-2.12165765448,0.00189651413349,4.01533838829e-05,0.17943573504,1.350504192
1590609876528610207,152.392448724,1128.15732916,-2.12165762816,0.0018968260952,3.35225842186e-05,0.179401049281,1.411956992
1590609876594409990,152.392448578,1128.15732787,-2.1216576615,0.00190308254493,2.85287681287e-05,0.179300490071,1.477756672
1590609876623451116,152.39244842,1128.15732671,-2.12165769575,0.00191176922086,2.61566286895e-05,0.179219388902,1.506797824
1590609876668394414,152.392448275,1128.15732567,-2.12165771719,0.00191100439738,2.33462683623e-05,0.17914642254,1.551741184
1590609876721731212,152.392448142,1128.15732473,-2.12165773814,0.00190592639632,2.07741982997e-05,0.179077284647,1.605078016
1590609876777262806,152.392448024,1128.15732389,-2.12165776314,0.00189261617125,1.82256905919e-05,0.178967384526,1.660609536
1590609876829774381,152.392447914,1128.15732337,-2.12165779701,0.00188732595577,1.68510070784e-05,0.178884678244,1.713121024
1590609876883214000,152.392447838,1128.15732294,-2.12165783241,0.00188005527023,1.65963908946e-05,0.178812751738,1.766560768
1590609876924393988,152.392447806,1128.15732256,-2.12165786685,0.0018650724749,1.80792336313e-05,0.178705996544,1.807740672
1590609876972525539,152.392447811,1128.15732248,-2.12165789369,0.00185683346169,1.96245222649e-05,0.17862677054,1.855872256
1590609877019910240,152.392447822,1128.15732234,-2.12165791812,0.00185458933288,2.12170852695e-05,0.178560455634,1.903256832
1590609877088969193,152.392447882,1128.15732224,-2.12165793954,0.00185013583833,2.31690612242e-05,0.178498410148,1.972315904
1590609877120939711,152.392447958,1128.15732213,-2.12165795678,0.00184660820601,2.63136923369e-05,0.178403941833,2.004286464
1590609877168709577,152.392448034,1128.15732222,-2.12165796247,0.0018499599564,2.8250063541e-05,0.178334030084,2.05205632
1590609877218340789,152.392448119,1128.15732231,-2.12165796627,0.00185426726072,2.97610150949e-05,0.178273755427,2.101687552
1590609877309483261,152.392448226,1128.15732239,-2.12165796943,0.00185845491178,3.11830059712e-05,0.178217034075,2.192829952
1590609877331668170,152.392448486,1128.157565,-2.12165792875,0.00217928841471,3.27659535736e-05,0.178126429998,2.215014912
1590609877367467972,152.392448425,1128.15769426,-2.1216578871,0.00211270927502,3.0233191427e-05,0.178066960745,2.25081472
1590609877415039253,152.392448558,1128.15777097,-2.121657882,0.00200864715245,3.09700754715e-05,0.178008048497,2.29838592
1590609877468051112,152.392448646,1128.15781421,-2.12165786932,0.00193344621304,3.10247361111e-05,0.1779536586,2.351397888
1590609877520112529,152.392448717,1128.15783805,-2.12165785392,0.00190086725439,3.03044757919e-05,0.177869222714,2.403459328
1590609877574929791,152.391919815,1128.15785082,-2.12165785125,0.00189192435066,0.000639961650247,0.177806014306,2.458276352
1590609877628391655,152.391618186,1128.15785702,-2.12165423375,0.00192483151881,0.000513162762886,0.177753579477,2.511738368
1590609877674846997,152.391447695,1128.15785895,-2.12165290763,0.00202950495033,0.000263550233669,0.177686525445,2.558193664
1590609877718448064,152.391352143,1128.15785869,-2.12165362313,0.00211403743738,6.14702855321e-05,0.177644825173,2.601794816
1590609877769775348,152.391299882,1128.15785715,-2.12165522966,0.00218850320132,-6.98004824125e-05,0.177617823896,2.653122048
1590609877822969151,152.391272784,1128.15785496,-2.12165693089,0.00225279547413,-0.000139323138177,0.177593490789,2.706315776
1590609877881475839,152.391260511,1128.15785253,-2.12165832358,0.00233463770745,-0.0001621362421,0.177547450436,2.764822528
1590609877926249460,152.391256854,1128.15785013,-2.12165926079,0.00238478939435,-0.000163236369643,0.17750108406,2.80959616
1590609877976356167,152.391257789,1128.15784796,-2.12165980844,0.00241834194733,-0.000152769199718,0.177447636455,2.859702784
1590609878019422032,152.391261268,1128.15784615,-2.12166006672,0.00242228319577,-0.000131232707241,0.17732273619,2.90276864
1590609878073783932,152.391266353,1128.15784513,-2.12166009425,0.00240808045587,-0.000109588700509,0.177205764794,2.957130496
1590609878116227308,152.391271945,1128.15784465,-2.12165998869,0.00238361489789,-8.99194538052e-05,0.177078509718,2.999574016
1590609878165309401,152.391277739,1128.1578446,-2.1216598162,0.00235001158169,-7.25608509526e-05,0.176935216815,3.048656128
1590609878219719847,152.39128321,1128.15784502,-2.12165961546,0.00227252831208,-6.38222630125e-05,0.176656757857,3.103066624
1590609878290199594,152.391288539,1128.1578466,-2.12165944223,0.00220646179161,-5.59778559293e-05,0.176427018009,3.17354624
1590609878333801243,152.391293455,1128.15784859,-2.12165928702,0.00214331223581,-5.00686497742e-05,0.176206421814,3.217147904
1590609878366272015,152.391298075,1128.15785076,-2.12165914909,0.00208084903718,-4.53834880046e-05,0.17598170133,3.249618688
1590609878419898501,152.391302183,1128.15785312,-2.12165902239,0.00198053868775,-5.07207192551e-05,0.175594193551,3.303245312
1590609878474015573,152.391305856,1128.15785661,-2.1216589557,0.00190952442165,-5.22404042312e-05,0.175291136259,3.357362176
1590609878521698498,152.391309167,1128.15786021,-2.1216589006,0.00185057179168,-5.18754697753e-05,0.175016642586,3.405045248
1590609878576912974,152.391312183,1128.15786369,-2.1216588419,0.00179884671177,-5.00925236328e-05,0.174749221548,3.460259584
1590609878620122456,152.391314864,1128.15786706,-2.12165877521,0.00173027723363,-5.13101979592e-05,0.174313967525,3.503469056
1590609878681214856,152.391317245,1128.15787135,-2.12165872709,0.0016925324176,-4.83186951399e-05,0.173983052123,3.564561664
1590609878721057444,152.391319335,1128.15787554,-2.12165866949,0.00166522234417,-4.35847669498e-05,0.173689714608,3.604404224
1590609878767105323,152.391321286,1128.15787939,-2.12165860721,0.00164328390883,-3.43313112263e-05,0.173243874134,3.650451968
1590609878815998932,152.391322998,1128.15788396,-2.121658523,0.00163910487191,-2.58878241824e-05,0.172908328543,3.699345664
1590609878883991269,152.391324496,1128.15788824,-2.12165843709,0.00164671772341,-1.76247550026e-05,0.172617039519,3.767337984
1590609878925089686,152.391325838,1128.15789206,-2.12165835676,0.00166288629867,-9.30478035655e-06,0.17234590704,3.80843648
1590609878974047980,152.391327025,1128.15789545,-2.12165828503,0.00170447142873,1.76659907468e-06,0.171931494271,3.857394688
1590609879017014560,152.391328053,1128.1578994,-2.12165820548,0.00174707907129,9.97902482514e-06,0.171626183218,3.900361216
1590609879067270198,152.39132896,1128.15790303,-2.12165813836,0.00179138368891,1.67317550347e-05,0.171368486365,3.950616832
1590609879121758626,152.391329768,1128.1579062,-2.12165808559,0.00183741383032,2.257179596e-05,0.171134273147,4.005105408
1590609879174751380,152.391330497,1128.15790895,-2.12165804277,0.00191648888443,2.96076390826e-05,0.170789865602,4.058098176
1590609879225151497,152.391331134,1128.15791207,-2.1216579931,0.00197939672677,3.39785420141e-05,0.170541444454,4.108498176
1590609879277651355,152.39133167,1128.15791488,-2.12165795023,0.00203473827819,3.68449612018e-05,0.170453304029,4.160998144
1590609879328205972,152.391332123,1128.15791658,-2.12165791265,0.00211484797932,3.91075437155e-05,0.170097327787,4.211552768
1590609879380556693,152.391332532,1128.15791922,-2.12165787671,0.00217880330488,4.09311140041e-05,0.169964890357,4.263903488
1590609879416767401,152.391332823,1128.15792112,-2.12165783553,0.00221423708622,4.0249402139e-05,0.169732592604,4.300114176
1590609879465917096,152.391333084,1128.15792328,-2.1216578076,0.00225371201385,4.01097703268e-05,0.169559286171,4.349263872
1590609879516823842,152.391333292,1128.15792525,-2.12165777875,0.0023030261299,3.90435548087e-05,0.169340162624,4.400170496
1590609879575890680,152.391333464,1128.15792617,-2.12165774695,0.00231612115232,3.84191576117e-05,0.169257744134,4.459237376
1590609879623691155,152.391333594,1128.15792821,-2.12165772403,0.00233121801668,3.73211661355e-05,0.16915711644,4.507037952
1590609879675220417,152.391333697,1128.15792979,-2.12165770293,0.00234082812061,3.59697704696e-05,0.169052681542,4.558567168
1590609879727023947,152.391333777,1128.15793118,-2.12165768526,0.00234507869775,3.4486186866e-05,0.1689501166,4.61037056
1590609879770254631,152.391333829,1128.15793249,-2.12165767291,0.00234032732154,3.21152188351e-05,0.168792600087,4.65360128
1590609879820387920,152.391333865,1128.15793411,-2.12165767162,0.00232896875789,3.02067263711e-05,0.16867735426,4.703734528
1590609879875589333,152.391863157,1128.15793551,-2.12165766509,0.00230841549688,-0.00058380527239,0.168580279262,4.758936064
1590609879922807755,152.392164467,1128.15793689,-2.12166128994,0.00226895864614,-0.000458023771846,0.168441412396,4.806154496
1590609879970237132,152.392335053,1128.15793858,-2.12166262126,0.00223280883913,-0.000211913350636,0.168340303028,4.853583872
1590609880022020250,152.392430825,1128.15794021,-2.12166192558,0.00219621475206,-1.23971197684e-05,0.168254718318,4.90536704
1590609880084094630,152.392485175,1128.15794171,-2.12166033546,0.0021599145793,0.000125030052252,0.16817438831,4.967441408
1590609880135666426,152.39250919,1128.15794317,-2.12165862899,0.00209504615892,0.000184152045776,0.168057464221,5.01901312
1590609880165324991,152.392522652,1128.1579448,-2.12165730535,0.0020447211063,0.000219001801872,0.167967298254,5.048671744
1590609880214620475,152.392527322,1128.15794637,-2.12165634498,0.00200265695922,0.00022414118185,0.167894292788,5.097967104
1590609880280156334,152.392526542,1128.15794778,-2.12165576816,0.00196527140542,0.000210292772523,0.16783173989,5.163503104
1590609880327598109,152.392522976,1128.15794901,-2.12165552361,0.00191061859314,0.000181654057838,0.167760564519,5.210944768
1590609880372356814,152.392517873,1128.15795022,-2.12165555642,0.00187405872647,0.000154761107481,0.167720858576,5.255703552
1590609880417245022,152.3925119,1128.15795117,-2.12165573676,0.00185175482298,0.000128578425331,0.167702080101,5.300591616
1590609880470927179,152.392506006,1128.1579518,-2.12165599389,0.00183581032657,0.000106096092274,0.167699257796,5.354273792
1590609880517370345,152.392500193,1128.15795214,-2.12165627344,0.00182082905848,8.92122341671e-05,0.167735421901,5.400717056
1590609880574261226,152.392494655,1128.15795207,-2.1216565337,0.00181555189183,7.66557463777e-05,0.167781272119,5.457607936
1590609880623624308,152.392489489,1128.15795168,-2.12165676047,0.00181835332946,6.89875513493e-05,0.167837893933,5.50697088
1590609880693377369,152.392484769,1128.15795103,-2.12165694532,0.00183321117112,7.24558599505e-05,0.167959462916,5.576723968
1590609880717767787,152.392480454,1128.15794983,-2.12165704617,0.00184975152229,7.34833614458e-05,0.168064261531,5.601114368
1590609880777509465,152.392476619,1128.15794839,-2.1216571166,0.00186751690373,7.45932702517e-05,0.168169466397,5.660856064
1590609880822343256,152.392473044,1128.15794686,-2.12165717298,0.00188738984342,7.61427112009e-05,0.168276937036,5.705689856
1590609880878091722,152.392469946,1128.15794526,-2.12165722173,0.00191961454909,8.39991286591e-05,0.16846568507,5.761438464
1590609880926198382,152.39246731,1128.15794309,-2.12165723013,0.00194470775641,8.72081924449e-05,0.168615360972,5.80954496
1590609880966288802,152.392464605,1128.15794093,-2.12165723608,0.00196941700078,8.37959601968e-05,0.16874882328,5.849635584
1590609881016184372,152.392462408,1128.15793881,-2.121657278,0.00200004679655,8.24836947618e-05,0.168960611438,5.899531008
1590609881075753751,152.392460487,1128.15793629,-2.12165731948,0.00202135483475,7.78796585095e-05,0.169119595536,5.959100416
1590609881127154961,152.392458766,1128.15793386,-2.12165737336,0.00203934173338,7.11544356042e-05,0.169257281974,6.010501632
1590609881178087445,152.392457141,1128.15793167,-2.12165743823,0.00205496473336,6.22837795599e-05,0.169384828205,6.061434112
1590609881216047234,152.392455699,1128.15792966,-2.12165751379,0.00207316087284,5.02843894274e-05,0.169577650967,6.099394048
1590609881266037530,152.39245445,1128.15792739,-2.12165760583,0.0020838113728,3.99259275247e-05,0.169717674458,6.149384192
1590609881316914918,152.392453334,1128.1579253,-2.1216576936,0.00209118019004,3.02665630425e-05,0.169833634227,6.200261632
1590609881383698521,152.392452354,1128.15792347,-2.12165777156,0.00209823020741,1.78655353465e-05,0.169991214894,6.26704512
1590609881422941058,152.392451499,1128.15792156,-2.12165785906,0.00210004421407,9.19524061263e-06,0.170100419703,6.306287872
1590609881478640810,152.39245075,1128.15791991,-2.12165793217,0.00209952272578,2.4163576141e-06,0.17018606853,6.361987584
1590609881515993676,152.392450079,1128.15791855,-2.12165798922,0.00209700635553,-3.08476166396e-06,0.170257357499,6.399340288
1590609881566159304,152.392449501,1128.15791746,-2.12165803595,0.00209082509982,-8.83578549404e-06,0.170346561574,6.449506048
1590609881623444659,152.392449025,1128.1579164,-2.12165808542,0.00208482867062,-1.21913547905e-05,0.170403437317,6.506791424
1590609881679827014,152.392448611,1128.15791558,-2.12165812843,0.00207804214535,-1.40113164051e-05,0.170442395101,6.563173632
1590609881724948871,152.392448258,1128.15791499,-2.12165816364,0.00207066279483,-1.50835231942e-05,0.170469265495,6.60829568
1590609881766657392,152.392447945,1128.15791463,-2.1216581976,0.00205712304623,-1.52341367046e-05,0.170487744476,6.650003968
1590609881825026905,152.392447695,1128.15791443,-2.12165823076,0.00204775505039,-1.48505184053e-05,0.170491463285,6.708373504
1590609881877391523,152.3924475,1128.15791439,-2.12165826319,0.00204010520731,-1.39584835329e-05,0.170489589043,6.760738304
1590609881915336061,152.392447344,1128.15791449,-2.12165829417,0.0020288103779,-1.18580941216e-05,0.170454008812,6.798682624
1590609881965778347,152.392447219,1128.15791486,-2.12165831745,0.00202045806053,-1.0053389751e-05,0.170419049808,6.84912512
1590609882017059092,152.392447126,1128.15791536,-2.12165833681,0.00201523404113,-8.30089677036e-06,0.170380386624,6.90040576
1590609882076591556,152.392447056,1128.1579157,-2.12165836307,0.00201300248745,-7.46452960663e-06,0.170366095362,6.959938304
1590609882137086443,152.392447006,1128.15791627,-2.1216583766,0.00201075951667,-6.07744711844e-06,0.170331252794,7.020433152
1590609882181007187,152.392446957,1128.15791688,-2.1216583839,0.00200748920652,-3.16910366016e-06,0.170249609681,7.064353792
1590609882224070464,152.392446925,1128.15791775,-2.12165837689,0.00200513995821,-1.1919009445e-06,0.170178753888,7.107417088
1590609882269090432,152.392446898,1128.15791871,-2.1216583628,0.0020055709943,5.61064688995e-07,0.170109682946,7.152436992
1590609882316806690,152.392446878,1128.15791969,-2.12165834212,0.00200913734282,2.71991201367e-06,0.169989592245,7.200153344
1590609882373168505,152.392446859,1128.15792097,-2.12165831112,0.00201259061697,4.14708900579e-06,0.169893557178,7.256515072
1590609882432691279,152.392446838,1128.15792228,-2.12165827664,0.00201761045355,5.14794804987e-06,0.169804530162,7.316037888
1590609882483609416,152.392446815,1128.15792354,-2.12165824118,0.00202344265369,5.85695198912e-06,0.169716169825,7.366956032
1590609882518428612,152.392446788,1128.15792477,-2.12165820589,0.00203307522466,6.20279327411e-06,0.169566533296,7.40177536
1590609882569321131,152.392446755,1128.15792634,-2.12165817234,0.00204022098593,6.17848668272e-06,0.169449095709,7.452667904
1590609882618752763,152.392446719,1128.15792791,-2.12165814261,0.00204736825107,5.90551143216e-06,0.169342456648,7.502099456
1590609882671033438,152.39244668,1128.15792941,-2.12165811789,0.00205883582516,4.83249841908e-06,0.169171598045,7.554380032
1590609882718311562,152.392446633,1128.15793124,-2.12165810266,0.00206640388978,3.99223970847e-06,0.169040463629,7.601658368
1590609882772163660,152.392446587,1128.15793303,-2.12165809299,0.00207177766593,3.05988895919e-06,0.168921980417,7.655510272
1590609882820244465,152.392446539,1128.15793472,-2.12165808894,0.00207697333077,2.23154630251e-06,0.168807930432,7.703591168
1590609882870632379,152.392446493,1128.15793632,-2.12165808961,0.00208505158438,8.06709015044e-07,0.168621204289,7.753979136
1590609882919281530,152.392446447,1128.1579383,-2.12165809871,0.00208981330502,-8.0658956587e-08,0.168477639446,7.802628096
1590609882977207727,152.392446403,1128.15794025,-2.12165811062,0.00209193211609,-6.90045460876e-07,0.168349464367,7.860554496
