%time,field.linear.x,field.linear.y,field.linear.z,field.angular.x,field.angular.y,field.angular.z,secs_since_start
1588761548534899954,152.420335178,1128.18396928,-2.1216546347,-0.00630540579761,-0.0002787836353,-0.114181535031,0.0
1588761548584524991,152.420334128,1128.18402481,-2.12165578444,-0.00609573009098,-0.000313379899408,-0.115590530853,0.049625088
1588761548634957109,152.420336011,1128.18405811,-2.12165636686,-0.00555145443994,-0.000279613159651,-0.116368421961,0.100057088
1588761548684922430,152.420340923,1128.18407331,-2.12165627783,-0.00468712630242,-0.000192020472492,-0.116696705382,0.1500224
1588761548734442371,152.420347363,1128.18407488,-2.12165555404,-0.00374548206481,-8.79787238874e-05,-0.116661427685,0.199542528
1588761548784679221,152.420352578,1128.18406832,-2.12165445835,-0.00245950058253,3.93209604362e-05,-0.115794445934,0.2497792
1588761548834945472,152.420354958,1128.18405265,-2.12165312088,-0.00153819926006,0.000101101250038,-0.114873673378,0.300045568
1588761548884934749,152.420354504,1128.18403269,-2.12165208985,-0.000772139508966,0.000115601278157,-0.113841718264,0.350034688
1588761548935187455,152.420351605,1128.18400974,-2.12165157362,0.000473362332977,7.13703281119e-05,-0.111836009243,0.400287488
1588761548984948838,152.420347049,1128.18397837,-2.12165173778,0.00140525397476,1.99034566257e-05,-0.110157162278,0.450048768
1588761549034589377,152.42034178,1128.18394497,-2.12165232359,0.00221517917916,-3.45810196103e-05,-0.108536737237,0.499689472
1588761549085705887,152.420336328,1128.18391111,-2.12165314199,0.00298211212963,-8.75883679286e-05,-0.106881961547,0.550806016
1588761549134817163,152.420330182,1128.18387576,-2.12165402311,0.00450406328551,-0.000177525534958,-0.103909903653,0.599917312
1588761549184940882,152.420323083,1128.1838298,-2.12165509029,0.00567233251225,-0.000240447245431,-0.10144744606,0.650040832
1588761549234944033,152.420315929,1128.18378188,-2.12165607053,0.0066817827778,-0.000283715195049,-0.0990139724327,0.700044032
1588761549284910651,152.420309165,1128.18373431,-2.12165684987,0.00750190371598,-0.000306412723031,-0.0964309962575,0.750010624
1588761549335203998,152.420303727,1128.18368717,-2.12165737616,0.0085198377241,-0.000272988618663,-0.0918247914955,0.800304128
1588761549384572805,152.420300384,1128.18339203,-2.12165746289,0.00881117412075,-0.000216991991981,-0.0882320328996,0.84967296
1588761549434992809,152.420298733,1128.18319963,-2.12165713376,0.00922162698611,-0.000145159470351,-0.0850488641252,0.900092928
1588761549484630082,152.420298348,1128.18307067,-2.12165649776,0.00938011303305,-1.5581119686e-05,-0.0802866774113,0.949730048
1588761549534456548,152.420299002,1128.18297136,-2.12165537775,0.00904877415505,8.14228302735e-05,-0.0768003823813,0.999556608
1588761549584946229,152.420300384,1128.18289852,-2.12165419718,0.0083942475185,0.000160820036873,-0.0738876388132,1.050046208
1588761549634700906,152.420302162,1128.18284545,-2.12165310428,0.00750150960694,0.000223536587943,-0.0713141908853,1.099800832
1588761549684876800,152.420303976,1128.18280711,-2.1216521718,0.00560326455624,0.000276311196161,-0.0678034927343,1.149976832
1588761549735336993,152.420305626,1128.18253725,-2.12165143141,0.00365632520852,0.000293514976683,-0.0653807846791,1.200436992
1588761549784914037,152.419777926,1128.18237881,-2.12165096795,0.0021099948292,0.000896819286297,-0.0634184219503,1.250013952
1588761549834725359,152.419477554,1128.18228589,-2.12164716424,0.000687294156672,0.000741536947995,-0.0616114969632,1.299825408
1588761549885116195,152.41930769,1128.18223072,-2.12164589821,-0.00140081364041,0.000428520034061,-0.058500409275,1.350216192
1588761549935001370,152.419214213,1128.18218964,-2.12164699618,-0.00286180429792,0.000194048516754,-0.0559094501091,1.400101376
1588761549985359834,152.419166225,1128.18215805,-2.12164897314,-0.00395907757705,5.91156193176e-05,-0.0533612849861,1.450459904
1588761550035485786,152.419145072,1128.18213076,-2.12165085052,-0.00484148606368,-1.23583766389e-06,-0.0506758898228,1.500585728
1588761550085010800,152.419139343,1128.18210465,-2.12165221165,-0.00599811541997,-7.06476392101e-06,-0.0457300555587,1.55011072
1588761550134663646,152.419141291,1128.18182913,-2.12165298091,-0.00698637878445,-1.11571753342e-05,-0.0417183209293,1.599763712
1588761550184305816,152.419145933,1128.18165343,-2.1216533529,-0.00739574376336,-2.77408922638e-05,-0.0379989604266,1.649405952
1588761550234586260,152.419150315,1128.18153536,-2.12165357369,-0.00765693582355,-0.000108826026278,-0.0321696931216,1.6996864
1588761550284827575,152.419153295,1128.1814372,-2.12165409654,-0.00760611471013,-0.000181250486587,-0.0278523841414,1.74992768
1588761550335066376,152.419155079,1128.18135852,-2.12165474772,-0.00721853139947,-0.000253196042393,-0.0242088412612,1.8001664
1588761550384971388,152.41915566,1128.18129312,-2.12165547123,-0.00655654165868,-0.000324551035445,-0.020930281848,1.850071296
1588761550434416939,152.419155132,1128.18123703,-2.12165623433,-0.00530942078716,-0.000433639909949,-0.0162538948942,1.899516928
1588761550485034380,152.41915308,1128.18094017,-2.12165728328,-0.00465216291303,-0.000507124675325,-0.0130108042441,1.950134528
1588761550534926581,152.419150311,1128.18075449,-2.12165825569,-0.00392395245395,-0.000553751727342,-0.0105146706033,2.000026624
1588761550584763271,152.419146831,1128.18063842,-2.1216590362,-0.00344720577511,-0.000586210582474,-0.0085185396628,2.049863424
1588761550634760852,152.419142281,1128.18056759,-2.12165964832,-0.00337362828235,-0.000622256464436,-0.00634085461394,2.099860992
1588761550684979067,152.419136654,1128.18052238,-2.12166021883,-0.00337889969353,-0.000627902517356,-0.00511058722276,2.150078976
1588761550734598324,152.419131499,1128.1802594,-2.12166066706,-0.00355483608448,-0.00059584996073,-0.0044088266956,2.199698432
1588761550785056039,152.41912893,1128.18010948,-2.12166085052,-0.00275231404266,-0.000451638537702,-0.00407980878674,2.250156032
1588761550835052154,152.419129523,1128.18002289,-2.12166027994,-0.00171214427229,-0.000308865455616,-0.00407382463649,2.300152064
1588761550885066341,152.419131782,1128.17997324,-2.12165930837,-0.000593562293946,-0.000170295226286,-0.00435635649068,2.350166272
1588761550935436856,152.419134701,1128.17994623,-2.12165814826,0.000596923918596,-4.09701214961e-05,-0.00491458008431,2.400536832
1588761550991431834,152.419137818,1128.17993302,-2.12165695323,0.00259147344485,0.000128940437539,-0.00673152428777,2.456531968
1588761551036674833,152.419141336,1128.17969776,-2.12165554001,0.00372974426914,0.000239392851615,-0.00860003490102,2.501774848
1588761551085321241,152.41914434,1128.17957559,-2.12165427949,0.00476099550815,0.000299760965743,-0.010729725721,2.550421248
1588761551135117601,152.419145322,1128.1795219,-2.12165334841,0.00542003222575,0.000311022689983,-0.0132220680915,2.6002176
1588761551185069908,152.419143585,1128.1795126,-2.12165280195,0.00551137903067,0.000225834234777,-0.0184454103802,2.650169856
1588761551234556659,152.419139429,1128.17931026,-2.12165298167,0.00504220117235,0.000133397003573,-0.0230214588548,2.699656704
1588761551284727225,152.418605608,1128.17923091,-2.12165353215,0.00477089124796,0.000664822158851,-0.0276227216018,2.749827328
1588761551334835366,152.418301374,1128.17922115,-2.12165054647,0.00449847359937,0.000480656477621,-0.0324481964355,2.799935488
1588761551384801004,152.418130399,1128.17925157,-2.1216497097,0.00403923476001,0.000215693582228,-0.0408079035645,2.849901056
1588761551434417077,152.418037974,1128.17932548,-2.12165055358,0.00364648163866,4.13690872735e-05,-0.0472894849866,2.899517184
1588761551485404148,152.41799069,1128.17917464,-2.12165187551,0.00301013974547,-4.11662607572e-05,-0.0497219188745,2.950504192
1588761551536112737,152.417971063,1128.17909376,-2.12165241493,0.00279268910206,-8.6334619092e-05,-0.0539006702756,3.001212672
1588761551585889401,152.417965014,1128.17906668,-2.12165302652,0.00250985503313,-4.44136915575e-05,-0.062178850415,3.050989312
1588761551636057865,152.417967395,1128.17912981,-2.121653272,0.00241541906762,2.24059542462e-06,-0.0686458221817,3.101157888
1588761551685743868,152.417973856,1128.17920704,-2.12165306233,0.00237698322257,4.72837405908e-05,-0.0744521196334,3.150843904
1588761551735461165,152.417982675,1128.17928851,-2.12165266056,0.00222353832637,8.50044119483e-05,-0.0800163824719,3.200561152
1588761551790625226,152.417462934,1128.17913531,-2.12165230616,0.00139193816631,0.000714324640014,-0.0889968187716,3.255725312
1588761551835030996,152.417171205,1128.17910695,-2.12164847755,0.000902091744992,0.000589290592642,-0.0958862313974,3.300131072
1588761551885489127,152.417009605,1128.17913784,-2.12164713294,0.00035527152889,0.000331336385636,-0.102053176832,3.350589184
1588761551936029738,152.416922207,1128.17919871,-2.12164799834,-0.000278485732841,0.000100311063407,-0.108022034086,3.401129728
1588761551985480224,152.416875668,1128.17927631,-2.12164993614,-0.00164819490187,-0.000144901360817,-0.118022885371,3.450580224
1588761552035002661,152.416851574,1128.1793892,-2.1216525315,-0.00278185097005,-0.000312720447512,-0.12587862585,3.500102656
1588761552085774680,152.416840199,1128.17927176,-2.12165506002,-0.00416927596619,-0.000429553412242,-0.133068238662,3.550874624
1588761552134723612,152.416837146,1128.17925535,-2.12165718327,-0.00514304668741,-0.00049484519105,-0.140042896973,3.599823616
1588761552185082233,152.416310655,1128.17929384,-2.12165876649,-0.0063938858344,0.000108153263718,-0.151251455607,3.650182144
1588761552234530734,152.416017254,1128.17938758,-2.12165607273,-0.00702114842172,2.31826126217e-05,-0.15962610678,3.699630848
1588761552285068428,152.415856239,1128.17949419,-2.1216550025,-0.00740758092129,-0.000149149999719,-0.166836015796,3.750168576
1588761552335016098,152.415772293,1128.17959894,-2.12165540363,-0.00746445636265,-0.000256360233318,-0.173458086204,3.800116224
1588761552385034230,152.415731728,1128.17969657,-2.12165630242,-0.00690397627814,-0.000238060419907,-0.18356226373,3.850134272
1588761552435092162,152.415717067,1128.17980754,-2.1216567923,-0.00603162174037,-0.000187836885789,-0.191028176134,3.900192256
1588761552484696643,152.415716577,1128.1799089,-2.12165688659,-0.00490837763971,-0.000112774163051,-0.197401884769,3.949796608
1588761552535373030,152.415196081,1128.17999676,-2.12165664773,-0.00359301507182,0.000600031761561,-0.203191685866,4.000473088
1588761552584668726,152.414909938,1128.1798352,-2.12165251105,-0.00132705237088,0.000649999372482,-0.211519254917,4.049768704
1588761552634988015,152.414758115,1128.17978141,-2.12165002813,0.000767056548354,0.000536327811961,-0.217322734616,4.100088064
1588761552684762136,152.414682731,1128.17977562,-2.12164944684,0.0026415796461,0.000437468600923,-0.221865235751,4.149862144
1588761552740000050,152.414649196,1128.17979232,-2.12164981118,0.00487347966702,0.000330492940772,-0.227485676713,4.205100032
1588761552785856946,152.414637153,1128.17983054,-2.12165068172,0.00605794087436,0.000222961226085,-0.231210178772,4.250957056
1588761552834586015,152.414635794,1128.17963633,-2.12165182361,0.00629491213617,0.000110803733016,-0.23401482565,4.299686144
1588761552885321482,152.414639253,1128.17954372,-2.12165304757,0.00638438307823,-4.91709490528e-06,-0.236277469807,4.350421504
1588761552934809286,152.414645397,1128.17950603,-2.12165424553,0.00645115324624,-0.000191334879438,-0.238915250801,4.399909376
1588761552985042972,152.414123503,1128.17950003,-2.12165578592,0.00657044873192,0.000307482482026,-0.240412403004,4.450142976
1588761553035128619,152.413831411,1128.1795041,-2.12165343948,0.00670373888446,0.000119123423753,-0.241146733723,4.500228608
1588761553085120395,152.413671069,1128.17950844,-2.12165293068,0.0069179572323,-0.000138921498198,-0.24117971143,4.550220544
1588761553134865062,152.413586377,1128.17927216,-2.12165394998,0.0067846099789,-0.000342353118538,-0.239663178313,4.599965184
1588761553184627398,152.413542059,1128.17912749,-2.12165550243,0.00673291854417,-0.000470500356774,-0.237925578633,4.649727488
1588761553235140505,152.413520731,1128.17903554,-2.12165697595,0.00650525688375,-0.000538611098692,-0.235976967863,4.70024064
1588761553285278173,152.413512047,1128.1789738,-2.1216581454,0.00576059337552,-0.000559941156838,-0.23238989691,4.75037824
1588761553334597002,152.413512404,1128.17868503,-2.12165903134,0.00466204079528,-0.000517024152745,-0.229525315573,4.799697152
1588761553384778348,152.413518901,1128.17850851,-2.12165940289,0.00380884675911,-0.000424822857387,-0.226822470395,4.849878272
1588761553434450378,152.413530662,1128.17839835,-2.12165926367,0.00290782327946,-0.000289801001925,-0.224038676882,4.899550464
1588761553484670326,152.413545643,1128.17832571,-2.12165864824,0.00128264800143,-4.6365726749e-05,-0.218716234151,4.94977024
1588761553534530803,152.413033524,1128.17826077,-2.12165718858,0.000117073494974,0.000743255938892,-0.214212645069,4.999630848
1588761553585198298,152.412749363,1128.17796595,-2.12165205542,-0.001079690133,0.000761423185684,-0.209783654484,5.050298368
1588761553635195065,152.412596171,1128.17777751,-2.12164934056,-0.00180875432473,0.00063531362434,-0.205214501216,5.100295168
1588761553684784985,152.412518939,1128.17764933,-2.12164884813,-0.00304081961177,0.000584277534072,-0.197247463973,5.149884928
1588761553734877506,152.41248722,1128.17753737,-2.12164914909,-0.0040538468481,0.000575003045716,-0.190993580259,5.199977472
1588761553785039741,152.412481928,1128.17744515,-2.12164959906,-0.00505445292254,0.000596250485252,-0.185338610737,5.250139648
1588761553835209534,152.412490227,1128.17713265,-2.12164986469,-0.00721472016222,0.000610094943361,-0.176466888905,5.300309504
1588761553884840187,152.412504706,1128.17691441,-2.12164991007,-0.00869158240616,0.000599457646217,-0.169629363601,5.349940224
1588761553934534185,152.412520341,1128.17676227,-2.12164987403,-0.00994242373363,0.000539636356713,-0.163490156206,5.399634176
1588761553984753320,152.412533442,1128.17665104,-2.12164999133,-0.0110701682855,0.000427832321209,-0.157459069549,5.44985344
1588761554034891830,152.412542564,1128.17656221,-2.12165038539,-0.0122509235148,0.000156497246879,-0.147190473831,5.499991808
1588761554084844130,152.412548198,1128.17645858,-2.12165180128,-0.0128017913051,-5.38040528403e-05,-0.138974439904,5.549944064
1588761554135113164,152.413082001,1128.17635634,-2.1216534166,-0.0127810005851,-0.000819407208786,-0.131341405892,5.600213248
1588761554185144833,152.41338906,1128.17625602,-2.12165845824,-0.0123804092011,-0.000792868878729,-0.123762366787,5.650244864
1588761554234770006,152.413566592,1128.1761551,-2.12166082046,-0.0109228676875,-0.000601695636057,-0.111223719851,5.699869952
1588761554285052570,152.413670406,1128.17602064,-2.12166074109,-0.00943231777253,-0.000400468952715,-0.101600757854,5.750152704
1588761554334663504,152.413729543,1128.17564755,-2.1216593256,-0.00805696791515,-0.000258739078599,-0.0930575563677,5.799763456
1588761554384778175,152.413760628,1128.1753821,-2.12165753521,-0.0063023078194,-0.000186834772665,-0.0848427216884,5.849878272
1588761554434818410,152.4137732,1128.1751811,-2.12165608235,-0.00366868445627,-0.000197623493127,-0.0712359786719,5.899918336
1588761554484781899,152.413773778,1128.17498461,-2.12165545004,-0.00176784567928,-0.000228426090399,-0.0605465491478,5.949881856
1588761554534971274,152.413767397,1128.17481007,-2.12165549346,-9.43922369844e-05,-0.000261850399576,-0.0508151093077,6.000071424
1588761554585157955,152.413758281,1128.17465358,-2.12165599164,0.00144292965596,-0.00028637885075,-0.0412422669412,6.05025792
1588761554635032913,152.414277301,1128.17451039,-2.121656743,0.00340479911726,-0.000875098872378,-0.0255656667342,6.100132864
1588761554685178169,152.414570041,1128.17433799,-2.12166101492,0.00463008871372,-0.000704244828887,-0.0136024118613,6.150278144
1588761554735269129,152.414734107,1128.17417326,-2.12166280613,0.00550638256879,-0.000378492506413,-0.00321069742422,6.200369152
1588761554784916067,152.414826235,1128.1737844,-2.1216622775,0.0065535416241,6.96239718227e-06,0.0121141835673,6.250016
1588761554835128473,152.414876571,1128.17347545,-2.12165997831,0.00738256668767,0.000275520709193,0.0233209967593,6.300228608
1588761554884822677,152.414902142,1128.17323657,-2.12165730524,0.0081035587654,0.000439639349713,0.0328423687531,6.349922816
1588761554934629781,152.414910043,1128.17304943,-2.12165495687,0.00863317061888,0.000502617274479,0.0415581961148,6.39972992
1588761554984824928,152.415434855,1128.1728962,-2.12165328197,0.00929491931648,-0.00017018515234,0.0548379599976,6.449924864
1588761555035359247,152.415723369,1128.17273509,-2.12165625348,0.00960345313798,-0.000144968211061,0.0647093292571,6.500459264
1588761555085169102,152.415876953,1128.17259129,-2.12165769088,0.00968559002104,-1.01696648785e-05,0.0732093333934,6.550269184
1588761555134852822,152.415955162,1128.1724658,-2.12165754896,0.00962673954741,9.03195004104e-05,0.0811651745921,6.599952896
1588761555184938184,152.415991656,1128.17235486,-2.12165663241,0.00929400377836,0.000140285733683,0.0936794542906,6.650038272
1588761555234708657,152.416005434,1128.17222613,-2.12165551998,0.0087459499402,0.000171600703745,0.103171031105,6.699808768
1588761555284785574,152.416536074,1128.17210617,-2.12165439481,0.00796988673898,-0.000424586613037,0.111530758835,6.749885696
1588761555334456755,152.416831647,1128.1720003,-2.12165700661,0.00686715063693,-0.00028936418653,0.119460488409,6.799556864
1588761555385592121,152.416994348,1128.1719079,-2.12165749295,0.00405316543165,-1.73736185003e-05,0.122307375739,6.850692096
1588761555434430852,152.417077662,1128.17186239,-2.12165604128,0.00128476227395,0.00018456329118,0.13748812854,6.899531008
1588761555485524776,152.417118406,1128.17176698,-2.12165392917,-0.0015765614378,0.000292971990164,0.143089609278,6.950624768
1588761555535786475,152.417128364,1128.17173113,-2.12165271521,-0.00602680655974,0.000242351855109,0.149187905525,7.000886528
1588761555586156156,152.41712143,1128.17169815,-2.12165139512,-0.00767034973747,0.00020533013126,0.159924026255,7.051256064
1588761555636580981,152.417104679,1128.17160465,-2.12165120403,-0.0100171772602,0.000101902858698,0.167419214555,7.101680896
1588761555685958485,152.417612851,1128.17152436,-2.12165176934,-0.0124634634133,-0.000640699342893,0.173302552076,7.151058432
1588761555735884343,152.417890495,1128.17145964,-2.12165658084,-0.0144687227412,-0.000633883035821,0.178162887012,7.20098432
1588761555785760284,152.418039314,1128.17164329,-2.12165935465,-0.0168044347691,-0.000503606539497,0.184056793515,7.250860288
1588761555834758142,152.418115038,1128.17172419,-2.12166026175,-0.0182565791178,-0.000366867074383,0.187635649336,7.299858176
1588761555886477471,152.418149251,1128.17175636,-2.12166004197,-0.0189917270863,-0.000265509809611,0.189846799515,7.3515776
1588761555935442149,152.418160202,1128.17176631,-2.12165937075,-0.0192566715244,-0.000199380051171,0.191101614479,7.400542208
1588761555985349031,152.418158181,1128.17200455,-2.12165859826,-0.0187747239453,-0.000122011095612,0.191212051578,7.450449152
1588761556035873280,152.418149405,1128.17214129,-2.12165774235,-0.0182165683473,-6.7871383798e-05,0.190572719871,7.500973312
1588761556085223782,152.418137384,1128.17222287,-2.12165697638,-0.0173759075905,-2.37448661946e-05,0.189348730128,7.550323712
1588761556135940283,152.418125187,1128.17251094,-2.12165629031,-0.0157908593884,3.36807604263e-05,0.187628278999,7.601040384
1588761556185651898,152.418115919,1128.17267982,-2.12165563752,-0.0130566712617,0.000198610903102,0.183430135619,7.650752
1588761556235770929,152.418111163,1128.17279282,-2.12165438659,-0.0108288191388,0.000343033513062,0.179460919543,7.700870912
