%time,field.linear.x,field.linear.y,field.linear.z,field.angular.x,field.angular.y,field.angular.z,secs_since_start
1590669553910547605,152.312839362,1128.2294289,-2.09703990829,-0.146590269263,0.0106294321083,0.603891233401,0.0
1590669553965186713,152.314364461,1128.23349502,-2.09786982083,-0.130108820243,0.0160745433333,0.617798072088,0.054639104
1590669554008974078,152.316010604,1128.23649546,-2.09876370892,-0.119095899815,0.0205974572311,0.625392348821,0.098426368
1590669554055997989,152.317745754,1128.23862076,-2.09971477097,-0.110462039918,0.0246943198016,0.629283711543,0.14545024
1590669554105848595,152.319835192,1128.24194925,-2.10060670968,-0.105741981068,0.0272734383869,0.643593916909,0.195300864
1590669554166329539,152.322190433,1128.24416209,-2.1015190189,-0.103186249255,0.030704662203,0.652889659922,0.255781888
1590669554215598902,152.324715832,1128.24573882,-2.10245110084,-0.100758273067,0.0349900399856,0.660463416805,0.305051136
1590669554266659249,152.32733514,1128.24672477,-2.10339226757,-0.0981268550871,0.0401360578038,0.668259594148,0.356111616
1590669554313895365,152.330317804,1128.24862195,-2.10424772057,-0.09846948685,0.0475146956056,0.696738755301,0.403347712
1590669554364194338,152.333392264,1128.24942628,-2.10522994619,-0.0953307022779,0.0548603995966,0.713955141088,0.453646592
1590669554416073370,152.336111183,1128.2499597,-2.10611097037,-0.0916944648527,0.0633648525949,0.735818446267,0.50552576
1590669554456046938,152.339230266,1128.25044176,-2.10695983182,-0.0868819950186,0.0711597127826,0.760292886918,0.545499136
1590669554506722505,152.343083425,1128.25136548,-2.10779057891,-0.0811135682236,0.0814401905379,0.814057734583,0.596174848
1590669554558137550,152.34621864,1128.25175566,-2.10856689158,-0.0751423097623,0.0910834949944,0.858336817271,0.647589888
1590669554610286409,152.349513783,1128.25204428,-2.10932925272,-0.0677251546578,0.0986444010873,0.899253543386,0.699738624
1590669554668499883,152.352822012,1128.25213633,-2.1100630447,-0.0597909384363,0.105313524683,0.941587830648,0.757952256
1590669554727372568,152.356713274,1128.25271344,-2.11079681608,-0.0479719821028,0.111585632213,1.01799575577,0.816824832
1590669554759226989,152.360394974,1128.25263059,-2.11151800381,-0.0375056214171,0.115864700984,1.07542392236,0.848679168
1590669554811669991,152.363764635,1128.25277479,-2.1121721119,-0.0271834672701,0.119770206563,1.13084089563,0.901122304
1590669554868379458,152.367047638,1128.25266659,-2.11280741319,-0.0171389069138,0.121947957234,1.18445819629,0.95783168
1590669554906157740,152.370831499,1128.25330263,-2.1134325101,-0.00239590772879,0.121228779692,1.27758556853,0.995610112
1590669554957348752,152.374008521,1128.25371162,-2.11396026422,0.00843049425532,0.123143827743,1.35789482164,1.046801152
1590669555007139992,152.377595091,1128.25314059,-2.11458843772,0.0180706499841,0.119026467852,1.41411253301,1.096592384
1590669555060935374,152.381098484,1128.25410692,-2.11508837968,0.0329566478295,0.117320445461,1.53061068732,1.150387712
1590669555115843316,152.38380779,1128.25442756,-2.1155568841,0.0427682084742,0.116436846512,1.61979584269,1.205295616
1590669555162785350,152.38608709,1128.25426299,-2.11599310793,0.0506176498143,0.115021097516,1.69892096487,1.252237568
1590669555205185688,152.388608837,1128.2541795,-2.1163911239,0.0580962888671,0.1127810224,1.77651299917,1.29463808
1590669555256736112,152.390692803,1128.2554082,-2.11674598742,0.0686566079306,0.110127350576,1.91243257445,1.346188288
1590669555305966151,152.392548912,1128.25584049,-2.11706650274,0.0745285989687,0.108407665901,2.0173171701,1.395418368
1590669555358389449,152.394249188,1128.25628798,-2.11734573027,0.0792760758663,0.1071184684,2.11235665985,1.447841792
1590669555409874182,152.395354477,1128.25654339,-2.11759032724,0.0827679669665,0.106386503029,2.20431051088,1.499326464
1590669555475634658,152.396574415,1128.25849217,-2.11778491979,0.0881491643729,0.104701149813,2.36130240234,1.565086976
1590669555516889856,152.397584822,1128.25925727,-2.11797434167,0.0882333181573,0.102354303793,2.47525991743,1.606342144
1590669555559181865,152.398206646,1128.260228,-2.11811773352,0.0890343237051,0.101683573905,2.58112813861,1.648634112
1590669555607797147,152.398691893,1128.26125334,-2.11822510379,0.0889458206243,0.100655318749,2.68292054053,1.697249536
1590669555658312716,152.398044549,1128.26399504,-2.11829580032,0.0882278943345,0.099510722959,2.85099251564,1.747764992
1590669555714336655,152.397835704,1128.26589864,-2.11833273457,0.0849119860006,0.0973117254041,2.97860230696,1.803789056
1590669555764128105,152.397320045,1128.26759542,-2.11834294273,0.0813457960148,0.0956765562797,3.09212777714,1.853580288
1590669555815822111,152.395597576,1128.27112593,-2.11831933857,0.0763678395554,0.0936471939513,3.13207224765,1.905274368
1590669555855813208,152.394344564,1128.27432643,-2.11828355884,0.0707031671472,0.0898097943417,3.34639094258,1.945265408
1590669555917528816,152.392672494,1128.27660246,-2.11821118867,0.0644592235902,0.088105118301,3.42751189448,2.00698112
1590669555972075943,152.390797837,1128.27905063,-2.11810764696,0.0591331123668,0.0863030220481,3.52579687207,2.06152832
1590669556004919958,152.388038771,1128.28352024,-2.1180243714,0.0524422631597,0.0822619701508,3.76408455265,2.094372352
1590669556068705579,152.385489038,1128.28670031,-2.11788701104,0.0452365763588,0.0800691775428,3.92695327196,2.158157824
1590669556123771125,152.382966708,1128.28967936,-2.11767994889,0.0389253786736,0.0791589934178,4.06482925841,2.213223424
1590669556159396299,152.380848973,1128.29181405,-2.11762881806,0.0334909742023,0.0734720984748,4.16744304392,2.24884864
1590669556210158772,152.376791854,1128.29715206,-2.11744232824,0.0299776487527,0.0733731331084,4.35861990041,2.299611136
1590669556266633713,152.373209647,1128.30109448,-2.11725108276,0.0246268015298,0.0713680773167,4.50059497398,2.356086016
1590669556312108608,152.37160926,1128.30276492,-2.1171181662,0.0187045665835,0.0662220656438,4.54550464483,2.401560832
1590669556356257814,152.367736188,1128.30739146,-2.11697515715,0.0191881656573,0.0661247117547,4.70690922138,2.44571008
1590669556413190734,152.362484302,1128.31419116,-2.11675900724,0.0192732685099,0.0662644760566,4.77049143285,2.502642944
1590669556475582875,152.358248793,1128.31990461,-2.11657709377,0.0173475275335,0.0636039805701,4.93623929777,2.565035264
1590669556522166566,152.356551788,1128.32228933,-2.11656294013,0.0135751729188,0.0568658662359,5.05682127358,2.611618816
1590669556567374049,152.351765027,1128.32744499,-2.11636887328,0.0157386397084,0.0593368968553,5.18626086999,2.656826368
1590669556614343073,152.346062036,1128.33428017,-2.11632483153,0.0200008209077,0.0573584838971,5.29632284734,2.703795456
1590669556671516573,152.341128177,1128.34053559,-2.1161090465,0.0216274240191,0.0566507740079,5.56619065299,2.76096896
1590669556712009582,152.339348436,1128.34287787,-2.11623785452,0.0188714007709,0.0489894551658,5.64686695364,2.80146176
1590669556756501329,152.334757633,1128.34765459,-2.11618448561,0.0230993261214,0.050249701491,5.83021375779,2.845953536
1590669556814918204,152.33242956,1128.35003508,-2.11613947173,0.0247449622785,0.0473485521554,5.89823666859,2.904370432
1590669556868999501,152.327893247,1128.35517772,-2.11612886606,0.0294975220842,0.0484016905094,6.06744500111,2.958451712
1590669556918067577,152.323636304,1128.35955274,-2.11613243284,0.0320227650419,0.0479096969052,6.20194075869,3.007519744
1590669556962239997,152.320048958,1128.36369996,-2.11616212667,0.0344250667331,0.0464963628198,6.32309649471,3.051692288
1590669557021335449,152.31467598,1128.37046705,-2.11620196243,0.0422923618201,0.0478630808697,6.51395425873,3.11078784
1590669557077222497,152.310432478,1128.37672478,-2.11630080811,0.0455064405135,0.0466399168752,6.65533079396,3.166674688
1590669557123055729,152.306958297,1128.38059375,-2.11639559966,0.0454555658718,0.0460598856514,6.78099470948,3.212507904
1590669557176871039,152.303828624,1128.38452339,-2.11652236175,0.0471287081867,0.0457763629661,6.89964678262,3.2663232
1590669557218850181,152.299271873,1128.3911826,-2.11666235133,0.054497879056,0.0484715032063,7.09134133889,3.308302592
1590669557256857545,152.295607592,1128.39604508,-2.11683544129,0.0555830510604,0.0489162167641,7.23508070387,3.346309888
1590669557314730650,152.292871966,1128.40050258,-2.11701641627,0.0566247334849,0.0490170171119,7.3630963207,3.40418304
1590669557368793766,152.290133226,1128.40457761,-2.11721732845,0.0576976505954,0.0501725644939,7.48532329112,3.458246144
1590669557408737826,152.286400419,1128.41097699,-2.1174650446,0.0621880920334,0.0526782067293,7.67888259482,3.49819008
1590669557455727128,152.283656088,1128.41578836,-2.11770666878,0.0621461242175,0.0536572969504,7.82730354472,3.545179392
1590669557506308004,152.281458688,1128.41992961,-2.1179699874,0.0613758188841,0.0541923133478,7.95799026896,3.595760384
1590669557560300559,152.278488607,1128.42641252,-2.11825413423,0.064259186418,0.0567087200568,8.15981802666,3.649752832
1590669557614350107,152.276716174,1128.43097552,-2.11854763471,0.0622171186964,0.0572631994019,8.31227504071,3.703802368
1590669557675632833,152.275072886,1128.434931,-2.11886736085,0.0598579908693,0.057622099343,8.4447196043,3.765085184
1590669557714510395,152.273971427,1128.43848361,-2.11919291675,0.0579584230624,0.0578898772115,8.57143824654,3.803962624
1590669557756220169,152.272107928,1128.44445322,-2.11952827399,0.0594679920837,0.0601522452893,8.77576826471,3.845672448
1590669557805681190,152.270937579,1128.44872115,-2.11986354956,0.0566218329374,0.0606965720131,8.93057342838,3.89513344
1590669557864107219,152.270081704,1128.45237043,-2.12020349069,0.0542351449701,0.0614795099365,9.06873027326,3.953559552
1590669557918609502,152.269389363,1128.45811834,-2.1205471205,0.055139808988,0.0627682832574,9.2828920434,4.008061696
1590669557965632617,152.268851703,1128.46223922,-2.12088926643,0.0526254740639,0.0636883641102,9.44482558384,4.0550848
1590669558014126545,152.268860018,1128.46577102,-2.12122869242,0.0505224497975,0.0640436461519,9.58843836984,4.10357888
1590669558065502333,152.269154591,1128.46905897,-2.12156139134,0.0490617339407,0.0641052620634,9.72518343609,4.154954496
1590669558105882841,152.269059082,1128.47462102,-2.12188501981,0.0513528662142,0.0651255746832,9.94640305956,4.195335168
1590669558155116063,152.269334068,1128.47841461,-2.12219989384,0.0497947174484,0.0658118800527,10.116027321,4.24456832
1590669558213901766,152.270286528,1128.48174707,-2.12250526939,0.0487010655995,0.0657079143855,10.2669345998,4.303354112
1590669558274852261,152.271063637,1128.48728912,-2.12279832842,0.0519608339494,0.0662545365682,10.5010034295,4.36430464
1590669558315141672,152.271814637,1128.4912296,-2.12307127065,0.0512681677038,0.066709199806,10.6783441728,4.40459392
1590669558373526844,152.27247701,1128.49461329,-2.12333022582,0.0508775588631,0.0671040709655,10.8355951466,4.462979072
1590669558415313914,152.273587409,1128.49777333,-2.12356062979,0.0508417002238,0.0662291141102,10.9850889674,4.504766208
1590669558460775001,152.274927835,1128.50323679,-2.12377420911,0.0553100332775,0.0651081162976,11.2272704826,4.5502272
1590669558512511548,152.275963487,1128.50737131,-2.12398044256,0.0560016579253,0.0652812164585,11.413213751,4.601963776
1590669558558224214,152.276753352,1128.51081987,-2.12415112948,0.0560185795867,0.0651575257148,11.5778852737,4.647676416
1590669558608599630,152.277896342,1128.51662846,-2.1242981079,0.0609612880998,0.0638171311426,11.8346783743,4.69805184
1590669558658001724,152.279342776,1128.52086628,-2.12442225656,0.0612132588921,0.0627235264944,12.0296359237,4.747453952
1590669558707662406,152.280353554,1128.52434114,-2.12452259471,0.0611270085873,0.0623537669997,12.2021305889,4.797114624
1590669558757726213,152.281084015,1128.52774981,-2.12459282491,0.0616643595434,0.0617155158828,12.3669635162,4.847178496
1590669558817234251,152.281435694,1128.52954418,-2.12464959951,0.0595977619178,0.061760314614,12.4282520196,4.906686464
1590669558869187248,152.282385001,1128.53450835,-2.12466170916,0.0640004229479,0.058769139465,12.6542566973,4.958639616
1590669558926804396,152.283139457,1128.53846176,-2.12466286281,0.0644132861498,0.057172885587,12.8422562192,5.016256768
1590669558959544047,152.283734976,1128.54231381,-2.12464522227,0.0645501034767,0.055842554021,13.0171068121,5.048996352
1590669559006902155,152.284221451,1128.54903405,-2.12460294365,0.0685097786486,0.0533801900365,13.2952936617,5.09635456
1590669559057685587,152.284256782,1128.55416856,-2.12453466333,0.0673325934971,0.052297463725,13.5069505011,5.147137792
1590669559111463633,152.284479625,1128.5585495,-2.12443675624,0.0651425626927,0.0506305929934,13.6940586022,5.200915968
1590669559168029518,152.284780373,1128.56288102,-2.12431887152,0.0634145701268,0.0486790281315,13.8726307969,5.257481728
1590669559218053111,152.284061466,1128.57053497,-2.12417223023,0.0651629909144,0.0460042920289,14.1587314993,5.307505408
1590669559267285487,152.283454803,1128.57611666,-2.12399904853,0.0612088261906,0.0438918688459,14.3759058939,5.356737792
1590669559312242885,152.282819712,1128.58117471,-2.1238101834,0.0572894508632,0.0418073440451,14.5679978918,5.401695232
1590669559369598962,152.282141724,1128.58607464,-2.1236059249,0.0537078063593,0.0396274465967,14.7510123266,5.459051264
1590669559411251473,152.280384861,1128.59445988,-2.12337550959,0.0525847404928,0.0363692583625,15.0424958027,5.500703744
1590669559457276865,152.279243668,1128.6008966,-2.12313174237,0.0467216255358,0.0335355677121,15.2637883469,5.546729216
1590669559506843197,152.277824307,1128.60641219,-2.12287858195,0.0408648885874,0.031742943087,15.4592671857,5.596295424
1590669559557738996,152.27517208,1128.61554628,-2.12260102742,0.0381704727487,0.028952533063,15.7577185225,5.647191296
1590669559607633427,152.273050332,1128.6223648,-2.12231196979,0.0311588192472,0.0266937359164,15.9828229542,5.697085696
1590669559675301608,152.271134043,1128.62827244,-2.12201331566,0.024715980904,0.0245960100372,16.1800309736,5.76475392
1590669559720655862,152.268762601,1128.63408336,-2.12170849301,0.0197634208329,0.0231438008924,16.3676190479,5.81010816
1590669559767271587,152.265111657,1128.64359606,-2.12139272927,0.0177726334993,0.0204866355533,16.663345004,5.856723968
1590669559811365525,152.26197414,1128.65083817,-2.12107859669,0.0115469408655,0.0184014642736,16.8873397174,5.90081792
1590669559875467515,152.259010964,1128.65746282,-2.12076267812,0.00613163584501,0.0164502896586,17.0847385619,5.964919808
1590669559911582268,152.256140003,1128.66359982,-2.12045285001,0.00167238100386,0.0146155248923,17.2708609491,6.001034496
1590669559955980956,152.251207945,1128.67377844,-2.12014774803,0.00176790671328,0.0127880519506,17.5657144329,6.045433344
1590669560005800275,152.247412295,1128.68140308,-2.11984497384,-0.00343075191801,0.0105912904805,17.7891801901,6.09525248
1590669560058326698,152.243638274,1128.68818976,-2.11955542571,-0.00753674867151,0.00902081454439,17.9848174852,6.147779072
1590669560112322396,152.240360503,1128.69467236,-2.1192714642,-0.0105799117019,0.00700326433212,18.1702099847,6.201774592
1590669560166783430,152.234746157,1128.70501617,-2.11900858185,-0.00808024736366,0.00572464119929,18.462419104,6.256235776
1590669560216188487,152.230136258,1128.712917,-2.11876153224,-0.0110345612968,0.00409318261463,18.682887916,6.305640704
1590669560262463275,152.225965288,1128.72009544,-2.11852747832,-0.0134465848172,0.00244947035968,18.876282992,6.35191552
1590669560306908037,152.21992786,1128.73074967,-2.11832455013,-0.00985308724392,0.0012637570264,19.1685324679,6.396360448
1590669560355129018,152.215128956,1128.73883371,-2.11813667285,-0.0119783901954,-0.000224790376478,19.3881537038,6.444581376
1590669560407938413,152.210912332,1128.74585908,-2.11797129026,-0.0137029245519,-0.00149925339195,19.5797201662,6.497390592
1590669560476667707,152.206947818,1128.75250013,-2.11780615617,-0.0143857613651,-0.0025384017921,19.7617691976,6.566119936
1590669560518568768,152.20113696,1128.76279067,-2.11772607664,-0.00767523011587,-0.00283080406506,20.0442374922,6.608020992
1590669560556402601,152.196492841,1128.77075629,-2.11763585673,-0.00773716332641,-0.00357294626412,20.2594538465,6.645854976
1590669560604640913,152.192426669,1128.77747694,-2.11757874007,-0.00818189705462,-0.00407458310775,20.4474163402,6.694093312
1590669560654574670,152.188102597,1128.78389851,-2.11754261356,-0.0072094397419,-0.00390594912681,20.6251340897,6.74402688
1590669560704477067,152.182040366,1128.79399124,-2.11753186355,0.00034640202625,-0.00358104733749,20.9058561008,6.793929472
1590669560756354031,152.177332795,1128.801573,-2.11755096398,0.00075118051494,-0.00386289710367,21.1178715402,6.845806336
1590669560807064336,152.173790108,1128.80834784,-2.11760156422,0.000878424378848,-0.00471239271272,21.3033423655,6.896516608
1590669560863438887,152.16822103,1128.81836472,-2.11768981984,0.00806421811218,-0.00364685159664,21.5844681766,6.952891136
1590669560920977408,152.163818996,1128.8259277,-2.11779675384,0.00846847219569,-0.00310053642221,21.795754076,7.010429696
1590669560965053173,152.160478765,1128.83245744,-2.11793604492,0.00835623918831,-0.00314157330183,21.9795064852,7.054505472
1590669561009307140,152.155569842,1128.84211231,-2.11810830853,0.0150961626997,-0.0018176116792,22.2579718755,7.098759424
1590669561056125463,152.152096797,1128.84924055,-2.11830241058,0.0149933473363,-0.00117052281048,22.4669559144,7.145577728
1590669561110359932,152.148736774,1128.85559899,-2.11850852198,0.0152082175257,-1.87319257584e-05,22.6501853797,7.199812096
1590669561180707389,152.145919958,1128.86141064,-2.11873101797,0.0156119008959,0.000743335626156,22.7181497379,7.270159616
1590669561221411629,152.141558149,1128.87111112,-2.11897694951,0.0228345227004,0.00216359696395,23.0561327951,7.310863872
1590669561257442154,152.139100783,1128.8778767,-2.11925961104,0.0215185584014,0.00250342437412,23.2849287002,7.346894336
1590669561304321808,152.136878045,1128.88373904,-2.11954150943,0.0207144246827,0.00364815275895,23.4753280174,7.39377408
1590669561354561544,152.134711703,1128.88926176,-2.11983125955,0.0208176637024,0.00491914625431,23.6500784492,7.444013824
1590669561410113593,152.132007732,1128.89799672,-2.12013208364,0.0260585934409,0.00585385690873,23.9223696182,7.499565824
1590669561471544872,152.130673659,1128.90268326,-2.1204524579,0.0231946481303,0.00760476302281,24.0246987914,7.56099712
1590669561514861448,152.129731517,1128.90705433,-2.12077421494,0.0216217523045,0.00779747955999,24.16437494,7.604313856
1590669561571400017,152.12856913,1128.91204383,-2.12108365734,0.0227864568131,0.00869409530627,24.3204197497,7.660852224
1590669561609594046,152.126319875,1128.92064362,-2.12139512851,0.0288931836592,0.00968491813876,24.5839721737,7.6990464
1590669561657849568,152.125176063,1128.92631667,-2.12170231146,0.027608274308,0.0111274994444,24.7867557982,7.747301888
1590669561709953599,152.124650818,1128.93174337,-2.12200787569,0.0271542311333,0.011878335764,24.9664432288,7.799405824
1590669561762000436,152.123882524,1128.9369165,-2.12231605693,0.0282737666871,0.0140740739461,25.1372392895,7.851452672
1590669561811988960,152.123040405,1128.94313278,-2.12262029594,0.0295601694608,0.0141312091604,25.3038421701,7.90144128
1590669561867080971,152.122473306,1128.95147555,-2.1229075696,0.0334219197706,0.0141408967226,25.573972653,7.956533248
1590669561916205287,152.122411535,1128.95783986,-2.1231946334,0.0325760361982,0.0153392473283,25.779362971,8.0056576
1590669561977538423,152.122462423,1128.96365787,-2.12346454915,0.0320299651047,0.0164822463355,25.9599112477,8.066990592
1590669562019056164,152.121498364,1128.97360234,-2.12372770209,0.0382440756603,0.0169753796145,26.236134135,8.108508416
