%time,field.linear.x,field.linear.y,field.linear.z,field.angular.x,field.angular.y,field.angular.z,secs_since_start
1590608470918548665,152.395804586,1128.17212457,-2.12165623072,-0.0313899346582,-1.30745617133e-05,0.239374391131,0.0
1590608470969613536,152.395803469,1128.1721868,-2.12165588607,-0.0196483844191,-7.30915105685e-06,0.228275238618,0.051064832
1590608471021531608,152.395802598,1128.1722442,-2.12165538693,-0.0101618210646,1.97396127659e-06,0.219543657371,0.102982912
1590608471070791941,152.395801721,1128.17228867,-2.12165482807,-0.00152772740469,1.0519411056e-05,0.211647826342,0.1522432
1590608471118793708,152.395800575,1128.17232269,-2.12165429542,0.00683073926756,1.51729455273e-05,0.203972566898,0.200244992
1590608471170594386,152.395798753,1128.1723495,-2.12165390673,0.0197666888245,8.95101104293e-06,0.191900476929,0.252045568
1590608471220629882,152.395796276,1128.17239232,-2.12165378005,0.0291201047924,-4.27634228573e-07,0.183026735008,0.302081024
1590608471271725266,152.39579394,1128.17243201,-2.1216538986,0.0368410206475,-6.17869004054e-06,0.175677825613,0.353176576
1590608471319930437,152.395792314,1128.17246455,-2.12165419879,0.0436829003621,-3.89779919405e-06,0.169233475165,0.401381632
1590608471372913937,152.395791382,1128.17225489,-2.12165465325,0.0526481058042,1.01973656803e-05,0.160411560639,0.454365184
1590608471422078062,152.39579095,1128.17215811,-2.12165511665,0.0582801141847,1.82390565613e-05,0.154583082052,0.503529216
1590608471472347096,152.395791192,1128.17187927,-2.12165563842,0.0617646528896,3.2046121197e-05,0.150465634792,0.5537984
1590608471532579855,152.395792291,1128.1717277,-2.12165606621,0.0660253191946,5.72787286017e-05,0.147190564152,0.614031104
1590608471573439161,152.395793635,1128.17142989,-2.12165625561,0.0636818223846,6.71315089106e-05,0.145885217574,0.654890496
1590608471615934668,152.395795001,1128.1712709,-2.12165631335,0.0625080553329,7.21239965592e-05,0.145668582418,0.697385984
1590608471671941976,152.395796241,1128.17095557,-2.12165624595,0.0594620399015,7.2394283836e-05,0.14600298225,0.753393152
1590608471722129641,152.395797321,1128.17055474,-2.12165598704,0.0524364435728,6.22498238097e-05,0.14730213113,0.803580928
1590608471770740359,152.395798511,1128.17034773,-2.12165550219,0.0457857987724,5.49564245846e-05,0.148479293969,0.852191744
1590608471815176935,152.395799963,1128.17002191,-2.12165487842,0.0380032037298,5.32013205753e-05,0.149642318072,0.896628224
1590608471877213041,152.395801956,1128.16986523,-2.12165406676,0.0300853956302,5.5968891671e-05,0.150827784784,0.958664192
1590608471917314041,152.395803683,1128.16957494,-2.12165318042,0.0157563413934,4.84592978792e-05,0.152366039017,0.998765312
1590608471965518260,152.39580449,1128.16921648,-2.12165236891,0.00468486493186,3.39479343659e-05,0.153084234226,1.0469696
1590608472014719738,152.395804666,1128.16905397,-2.12165169033,-0.00475843953622,1.36938138788e-05,0.153060447019,1.096171008
1590608472073842099,152.395804525,1128.16900523,-2.12165124638,-0.01350110055,-7.01440376744e-06,0.152224482393,1.15529344
1590608472120925399,152.395804367,1128.16878863,-2.12165117357,-0.0274022469299,-3.17670413987e-05,0.148370972489,1.202376704
1590608472177289950,152.395804195,1128.16873791,-2.12165150122,-0.0367209615037,-5.21334661365e-05,0.144150865653,1.258741248
1590608472218146495,152.39580365,1128.16877432,-2.12165214983,-0.0438828282839,-7.48005366285e-05,0.139079788339,1.299597824
1590608472271111572,152.395802425,1128.16862167,-2.12165317981,-0.0535640652214,-0.000121425605264,0.128021166557,1.352562944
1590608472327062385,152.395800469,1128.16863251,-2.12165465641,-0.0587784600706,-0.000157295331107,0.11835819953,1.408513536
1590608472372083625,152.395797984,1128.16871683,-2.12165634577,-0.0612100428276,-0.000187125134523,0.10880789621,1.453534976
1590608472422276965,152.395795383,1128.16877304,-2.12165792906,-0.0623557923681,-0.000209122531721,0.104999243351,1.503728128
1590608472470047666,152.395792788,1128.16865611,-2.12165976505,-0.0616595337705,-0.00021900974338,0.0972469217535,1.551499008
1590608472523009602,152.395790908,1128.1685865,-2.1216613228,-0.0590376345747,-0.000216747441601,0.0810300783135,1.6044608
1590608472576234088,152.395789376,1128.16858815,-2.12166270742,-0.0570325419468,-0.000212555619115,0.0679757306597,1.657685248
1590608472618450216,152.395787856,1128.16875037,-2.1216638219,-0.0530353277486,-0.000196520486098,0.0560431456143,1.69990144
1590608472669538258,152.395786254,1128.16889844,-2.12166462767,-0.0478010522402,-0.000175224037901,0.0446058419642,1.750989568
1590608472716079849,152.395784486,1128.16879001,-2.12166514438,-0.037334409501,-0.000132840917218,0.026965629704,1.797531136
1590608472765983426,152.395782904,1128.16879642,-2.1216652111,-0.0278074271871,-9.07720824583e-05,0.0142477193927,1.847434752
1590608472821959610,152.39578179,1128.16860238,-2.12166500832,-0.0187014923226,-4.26402451086e-05,0.00391769178288,1.903410944
1590608472875310034,152.395781766,1128.16851427,-2.12166451907,-0.00314396566093,5.17356845195e-05,-0.00901100074269,1.956761344
1590608472918906689,152.395782677,1128.16825597,-2.12166359051,0.00836920062815,0.000119626440277,-0.0173195113417,2.000357888
1590608472983466831,152.395784038,1128.16788018,-2.12166257437,0.0184618102713,0.000171993539602,-0.0229375726448,2.064918016
1590608473020013009,152.395785693,1128.16766358,-2.12166155817,0.0277496438232,0.00021069308373,-0.0268722701273,2.10146432
1590608473070903451,152.395787211,1128.16705702,-2.12166069725,0.0407312556986,0.000240170694945,-0.0295089117575,2.152354816
1590608473119107833,152.395788582,1128.16646137,-2.12165987171,0.0487560034028,0.000240721469283,-0.0300829267529,2.200559104
1590608473170438144,152.395789797,1128.16610219,-2.12165921696,0.0555567727846,0.000227310058242,-0.0292115326106,2.251889408
1590608473220887771,152.395790572,1128.16540943,-2.12165867721,0.0617388915809,0.00017407645794,-0.0251715034879,2.302339072
1590608473272004202,152.395791002,1128.16474563,-2.12165830294,0.0650736717837,0.000126419772437,-0.0211095963383,2.35345536
1590608473322555966,152.395791195,1128.16410951,-2.12165788723,0.0662870356896,7.98342546993e-05,-0.0166593147736,2.404007168
1590608473374219344,152.395791224,1128.16349509,-2.12165734797,0.0659029362892,3.51756557493e-05,-0.0116817798109,2.455670528
1590608473416068515,152.395791056,1128.16266161,-2.12165662249,0.0625769694863,-2.71342540246e-05,-0.00204281300215,2.497519872
1590608473471946178,152.395790782,1128.16192094,-2.12165572442,0.0584847756647,-6.4680696335e-05,0.00585717572047,2.553397504
1590608473520301358,152.39579039,1128.16125114,-2.12165455523,0.0532227175696,-8.88537996928e-05,0.013204520822,2.601752576
1590608473576157373,152.395789894,1128.16063255,-2.12165316496,0.0467683927055,-0.000103010046588,0.0202438717836,2.657608704
1590608473621439087,152.395789247,1128.15981598,-2.1216516924,0.0340969320409,-0.000106540641002,0.030666515887,2.70289024
1590608473668852389,152.395788642,1128.15911504,-2.12165018195,0.0238761480343,-9.94973800798e-05,0.0379267374472,2.750303744
1590608473717294412,152.395788105,1128.15849672,-2.12164876772,0.0144128058217,-8.65493232847e-05,0.0435435179299,2.7987456
1590608473770547020,152.395787632,1128.15793417,-2.12164756024,0.00512623010817,-7.06591632358e-05,0.0480602261183,2.851998208
1590608473820963808,152.395787083,1128.15717663,-2.12164682338,-0.010452988366,-4.50463672039e-05,0.052785766883,2.902415104
1590608473870328097,152.395786599,1128.15679057,-2.12164653297,-0.021699079256,-3.02789887819e-05,0.05491864058,2.951779328
1590608473919179089,152.395786009,1128.15639075,-2.12164687709,-0.0314507076805,-2.22239716318e-05,0.0550682318528,3.000630272
1590608473979035901,152.395785272,1128.15575307,-2.12164796409,-0.0457796927076,-2.28374492079e-05,0.0506894537752,3.060487168
1590608474020147936,152.395784607,1128.15548257,-2.12164972751,-0.0546473630229,-2.99361230553e-05,0.0452718141238,3.101599232
1590608474067958099,152.395783917,1128.15517907,-2.12165208236,-0.061049400969,-4.08514936834e-05,0.0385118978927,3.14940928
1590608474121702307,152.395783234,1128.15485597,-2.12165485289,-0.0656548888424,-5.41916649654e-05,0.0303271309252,3.203153664
1590608474176107361,152.395782653,1128.15451951,-2.12165790317,-0.0698486182693,-7.73693511899e-05,0.0139256559193,3.257558528
1590608474222003567,152.395782307,1128.15445492,-2.12166108797,-0.0705081617714,-8.72293586532e-05,0.00036633854692,3.30345472
1590608474269982576,152.395782076,1128.15428296,-2.1216641788,-0.0696779968654,-8.97137506292e-05,-0.0123896343588,3.351433728
1590608474316514293,152.39578197,1128.15403638,-2.12166696067,-0.0657580682576,-8.30699024508e-05,-0.0334499896749,3.397965568
1590608474372046563,152.395782121,1128.15402476,-2.12166920097,-0.0605187218196,-6.50750800415e-05,-0.0498858458355,3.453497856
1590608474419847065,152.395782398,1128.1538761,-2.12167092423,-0.0546247991009,-4.05805952412e-05,-0.0647335530423,3.501298432
1590608474470295410,152.395782837,1128.1536317,-2.12167200327,-0.0426818812769,8.77843182752e-06,-0.0877395267014,3.55174656
1590608474524055608,152.3957836,1128.15360041,-2.12167248751,-0.0324896213801,5.75743319567e-05,-0.0964293947241,3.605506816
1590608474577280872,152.395784274,1128.15358667,-2.12167229559,-0.0277708564331,7.12809227949e-05,-0.107894591183,3.658732032
1590608474626430557,152.39578506,1128.15342878,-2.12167188349,-0.020611946289,0.00010054071288,-0.120666265828,3.707881728
1590608474669987022,152.395785633,1128.15309691,-2.12167139165,-0.012203165014,0.000132130071925,-0.133396770272,3.751438336
1590608474718029873,152.395786514,1128.15278887,-2.12167039699,0.00289398444919,0.00018014956139,-0.152845651544,3.799481088
1590608474772889206,152.395787571,1128.1524594,-2.12166911281,0.0143496905849,0.000209600109705,-0.166570332699,3.854340352
1590608474820028932,152.395788685,1128.15209031,-2.12166774972,0.024173858291,0.000226739542713,-0.177197817908,3.901480192
1590608474876773996,152.395789674,1128.1516816,-2.12166638644,0.0390200909219,0.000228622339271,-0.188793269658,3.958225152
1590608474921978374,152.395790415,1128.151249,-2.12166510591,0.0491037966908,0.000213068438366,-0.19514497994,4.003429632
1590608474969411655,152.395790844,1128.15078377,-2.12166397033,0.0565899998555,0.000184915663177,-0.198297672153,4.050862848
1590608475021526896,152.395791076,1128.15028709,-2.1216629887,0.0626620213564,0.000149386872215,-0.198838807163,4.102978048
1590608475070471075,152.395791283,1128.14952655,-2.12166211421,0.0697742512065,8.55253199022e-05,-0.193204688141,4.151922432
1590608475121040254,152.395791523,1128.14882024,-2.12166135449,0.0731698224854,3.61421917733e-05,-0.185699484995,4.202491392
1590608475193189399,152.395791668,1128.14814581,-2.12166051963,0.0740640654674,-8.31040445418e-06,-0.176046177049,4.27464064
1590608475220854923,152.39579175,1128.14749098,-2.12165956522,0.072555805895,-4.5490513019e-05,-0.164298036075,4.302306304
1590608475271542497,152.395791791,1128.14636719,-2.12165846706,0.0671187632525,-9.3476143776e-05,-0.140218543939,4.352993792
1590608475319338622,152.395791766,1128.14539029,-2.12165720022,0.0613627026754,-0.00011059139322,-0.119966629682,4.40078976
1590608475369980079,152.395791855,1128.14452191,-2.12165564946,0.0550291957556,-0.000112273438925,-0.100213465121,4.451431424
1590608475419095349,152.395791985,1128.14372332,-2.12165389997,0.0479742963501,-0.000103053498016,-0.0798373053304,4.50054656
1590608475471572848,152.395791887,1128.14272913,-2.12165210489,0.0346464387857,-7.24652808084e-05,-0.044275094613,4.553024
1590608475519428035,152.395791482,1128.1417849,-2.1216502896,0.0236911203491,-3.74014970037e-05,-0.0164512003894,4.60087936
1590608475575657349,152.395790958,1128.14114897,-2.12164856001,0.0137130702448,-1.84153645639e-06,0.00856733384067,4.657108736
1590608475621467924,152.395790081,1128.14023458,-2.12164730372,-0.00270913040967,5.70994556462e-05,0.046974422264,4.702919168
1590608475674143427,152.395789227,1128.13931945,-2.12164637805,-0.0148994278809,0.000101919986173,0.0759603568366,4.755594752
1590608475716161219,152.395788382,1128.13847105,-2.12164626545,-0.0239686394254,0.000134186525477,0.100636948938,4.797612544
1590608475765487035,152.395787867,1128.13789857,-2.12164658072,-0.0323471706826,0.000162953561331,0.12395335124,4.846938368
1590608475817195797,152.395787362,1128.13702278,-2.12164764801,-0.045555122537,0.000202548709661,0.159519462806,4.89864704
1590608475875736823,152.395787319,1128.136382,-2.12164927549,-0.0542540590071,0.000216064558133,0.185439638817,4.957188096
1590608475921348139,152.395787501,1128.13569056,-2.12165152224,-0.0610461639445,0.000217136888931,0.206752028339,5.00279936
1590608475969455612,152.395787917,1128.1352309,-2.12165417734,-0.0664326126649,0.000207368129968,0.225162454978,5.05090688
1590608476019014098,152.396317391,1128.13467966,-2.12165715451,-0.0746502148714,-0.000439995101599,0.248392930426,5.100465408
1590608476069899295,152.396618457,1128.13404875,-2.12166402728,-0.0789192340123,-0.000357010509219,0.262658128052,5.151350528
1590608476121688112,152.396788937,1128.13364729,-2.12166861868,-0.0800360520953,-0.000163973772398,0.271927617302,5.203139328
1590608476172608875,152.39688381,1128.13339431,-2.12167104144,-0.07877914975,-2.15372494888e-05,0.277617654686,5.254060032
1590608476221340126,152.396935687,1128.13299587,-2.12167233538,-0.0746813710405,2.35739150663e-05,0.279892293529,5.302791424
1590608476272975390,152.396961154,1128.13276864,-2.1216730166,-0.0681146942952,3.65782488207e-05,0.278844950258,5.354426624
1590608476319906797,152.396973328,1128.13264473,-2.12167350588,-0.0616087865202,3.19379332285e-05,0.275199875724,5.40135808
1590608476371456017,152.396976869,1128.13235583,-2.12167365785,-0.0492847161377,1.43631258085e-06,0.264089979883,5.452907264
1590608476420125851,152.396975222,1128.13224079,-2.12167349105,-0.0385731451477,-1.65386270551e-05,0.253610049986,5.501577216
1590608476470977186,152.396970841,1128.13198605,-2.12167301255,-0.0286699546005,-2.21156194479e-05,0.242495272561,5.552428544
1590608476518901817,152.396965245,1128.13189251,-2.12167218168,-0.0185882743922,-1.75144528412e-05,0.230273570462,5.600353024
1590608476575466912,152.396959337,1128.13165403,-2.12167109863,-0.00143456597439,3.51130545196e-05,0.207576870315,5.656918272
1590608476620145042,152.396953706,1128.13161585,-2.12166957127,0.0122187354057,8.42382440087e-05,0.189388641904,5.701596416
1590608476670875048,152.396948653,1128.13166988,-2.12166789459,0.0243049518084,0.000135455756088,0.172797508934,5.7523264
1590608476717254899,152.396944141,1128.13153137,-2.12166628568,0.0418832875744,0.000232194127604,0.147287648479,5.798706176
1590608476768696300,152.396940107,1128.1313292,-2.121664597,0.0537734004784,0.000291835954672,0.128380505113,5.850147584
1590608476818881127,152.39693651,1128.13130136,-2.1216631352,0.0629959014883,0.000328942646885,0.112241334365,5.900332288
1590608476871319603,152.396932833,1128.13113075,-2.1216620362,0.0693827098556,0.000345435299212,0.0974643362082,5.952770816
1590608476918939439,152.396928694,1128.13088027,-2.12166129166,0.076389341215,0.000334847924413,0.0749070625783,6.000390656
1590608476975503090,152.396923424,1128.13063843,-2.12166088183,0.0788498627133,0.000287643824476,0.0580727119147,6.056954368
1590608477020633335,152.396917273,1128.13061547,-2.12166076934,0.0790430459972,0.000218101186118,0.0434519441812,6.102084608
1590608477073756495,152.396910405,1128.1304743,-2.12166090692,0.0768844260152,0.000134253001196,0.0297484657416,6.15520768
1590608477117059424,152.396903053,1128.13026507,-2.12166111077,0.0714197190326,-5.12874962199e-06,0.00824770343873,6.198510592
1590608477171760441,152.396895534,1128.13031167,-2.1216614916,0.0650614161656,-0.000114372458557,-0.00777565958433,6.253211648
1590608477217699996,152.396888218,1128.13023347,-2.12166176923,0.0582158764053,-0.000205093568882,-0.0215314754168,6.29915136
1590608477267506374,152.396881462,1128.13030931,-2.12166181142,0.0507977230153,-0.000278680301876,-0.0339038127946,6.348957696
1590608477319988246,152.396875385,1128.13022996,-2.12166166539,0.0377162110771,-0.000351535980788,-0.0507626084374,6.401439488
1590608477376469981,152.396870655,1128.13033442,-2.12166144292,0.0273265210916,-0.000380159133195,-0.0619728679083,6.45792128
1590608477425674768,152.39686756,1128.13050552,-2.12166103469,0.0176650263658,-0.000375895758677,-0.0703097302203,6.507126016
1590608477471825982,152.396865972,1128.13045958,-2.12166053488,0.00781119362599,-0.000346482792552,-0.0769840012939,6.553277184
1590608477520648949,152.396865581,1128.13051817,-2.12166002206,-0.00751264317264,-0.000271900517934,-0.0852938821485,6.602100224
1590608477571062011,152.396865826,1128.13065376,-2.12165949266,-0.0186974014119,-0.000211932265699,-0.0906279602667,6.65251328
1590608477624985767,152.396866402,1128.1308062,-2.12165922005,-0.0279666548505,-0.000156640168376,-0.0944999950748,6.70643712
1590608477677352190,152.396867597,1128.1309556,-2.12165933265,-0.0411630787727,-7.4293986371e-05,-0.0985996180926,6.758803456
1590608477721031117,152.396869649,1128.13110663,-2.12165971077,-0.049554510844,-1.41719969841e-05,-0.101116933574,6.802482432
1590608477773677743,152.39687203,1128.13123998,-2.12166038465,-0.0562240017887,3.36323565818e-05,-0.101933200672,6.855129088
1590608477825745506,152.396874544,1128.13132708,-2.12166158657,-0.0605370228681,6.80798909965e-05,-0.102907732453,6.907196672
1590608477875026952,152.396877037,1128.13141487,-2.12166253837,-0.065865820905,9.70488006255e-05,-0.103204411112,6.956478208
1590608477923783097,152.396879379,1128.13147768,-2.1216635716,-0.0666900274058,0.000108608747757,-0.103952181074,7.005234432
1590608477986303666,152.396881501,1128.13151942,-2.12166466641,-0.0669515054288,0.000115131912907,-0.103173793714,7.067755008
1590608478027907288,152.396883402,1128.13153384,-2.12166567461,-0.0659730972873,0.000114145426952,-0.10120665355,7.109358592
1590608478074820116,152.396885008,1128.13152111,-2.12166651278,-0.0638582100025,0.000106220873201,-0.098110290411,7.15627136
1590608478124873588,152.396357137,1128.13171815,-2.12166702893,-0.0585513244486,0.000694069431058,-0.0906465004614,7.206324736
1590608478181595152,152.396057152,1128.13176364,-2.121663628,-0.0532453519827,0.000541691503959,-0.0840428883965,7.2630464
1590608478222214861,152.395887178,1128.13172611,-2.12166224337,-0.0474752577568,0.000271449994384,-0.0773673658775,7.303666176
1590608478273573683,152.395792114,1128.13163696,-2.1216625718,-0.0371402880394,3.29199661505e-05,-0.0654600826266,7.355024896
1590608478327007852,152.3957402,1128.13148023,-2.12166359727,-0.0287464597656,-0.000129047315388,-0.0559774011301,7.408459008
1590608478380831678,152.395713029,1128.1315405,-2.12166453788,-0.0206702973585,-0.00023179161146,-0.0472706031634,7.462283008
1590608478425018549,152.395700192,1128.13149344,-2.12166515473,-0.0131136199459,-0.000291143455225,-0.0388681174863,7.506469888
1590608478470582772,152.395696029,1128.13138726,-2.12166542068,-0.00143327932619,-0.000324331186951,-0.0256494041015,7.552034048
1590608478518778015,152.395696942,1128.13121354,-2.12166545011,0.0071035089467,-0.000331644465438,-0.0158721906677,7.600229376
1590608478571456208,152.395700741,1128.13102828,-2.12166530407,0.0142199004586,-0.000324143642803,-0.00759726462616,7.65290752
1590608478620878560,152.395706073,1128.13085054,-2.12166508111,0.0203088722446,-0.000306965874812,-0.000243999472825,7.702329856
1590608478668640715,152.395712499,1128.13068603,-2.12166490768,0.0289844185378,-0.000272219746647,0.0102106728713,7.750092032
1590608478718531262,152.39571972,1128.13050809,-2.12166479662,0.0345248174244,-0.00023336939921,0.0174857315648,7.799982592
