%time,field.pos_north,field.pos_east,field.pos_heading,field.vel_north,field.vel_east,field.vel_heading,field.acc_north,field.acc_east,field.acc_heading,secs_since_start
1588168442905496900,152.39578474,1128.15407684,5.44553214334e-10,4.98002008809e-08,5.19432399805e-12,-4.89247884338e-10,-2.60077292229e-08,-5.12132149839e-12,4.39559324575e-10,0.0
1588168443005990197,152.395784745,1128.15407684,4.95291832821e-10,4.71815351441e-08,4.67866847811e-12,-4.4498954357e-10,-2.46554456213e-08,-4.61765798125e-12,3.9979592291e-10,0.100493312
1588168443104095193,152.395784749,1128.15407684,4.51727394869e-10,4.47677691434e-08,4.22660015985e-12,-4.05849557184e-10,-2.34080627096e-08,-4.17246071678e-12,3.64631046638e-10,0.1985984
1588168443205473991,152.395784754,1128.15407684,4.10747591829e-10,4.24041893823e-08,3.8052947393e-12,-3.6903170631e-10,-2.21857588153e-08,-3.73624774782e-12,3.3155246514e-10,0.299977216
1588168443304512939,152.395784758,1128.15407684,3.74247071244e-10,4.02098203553e-08,3.4357465799e-12,-3.36238216288e-10,-2.10501471399e-08,-3.37641926137e-12,3.02089523798e-10,0.399016192
1588168443404133409,152.395784762,1128.15407684,3.40685490061e-10,3.81087021959e-08,3.0987296566e-12,-3.06085183152e-10,-1.99620368909e-08,-3.05868535794e-12,2.74998870059e-10,0.498636544
1588168443503721185,152.395784766,1128.15407684,3.10129325011e-10,3.61159128433e-08,2.7933842829e-12,-2.78632332362e-10,-1.89293107959e-08,-2.7863036314e-12,2.50334163834e-10,0.598224384
1588168443604119670,152.395784769,1128.15407684,2.82240475934e-10,3.42212415126e-08,2.51449776316e-12,-2.53575901707e-10,-1.79467558733e-08,-2.53596265081e-12,2.27822493595e-10,0.69862272
1588168443710637998,152.395784773,1128.15407684,2.55088600524e-10,3.22995759434e-08,2.24295720478e-12,-2.29181596412e-10,-1.69495206346e-08,-2.24380767872e-12,2.05905701719e-10,0.805141248
1588168443803950632,152.395784776,1128.15407684,2.33777896106e-10,3.07235060062e-08,2.03431426417e-12,-2.10035226826e-10,-1.61310347041e-08,-2.03238174987e-12,1.88703858612e-10,0.89845376
1588168443903383256,152.395784779,1128.15407684,2.12811149459e-10,2.91132269929e-08,1.83143194826e-12,-1.91197881992e-10,-1.52942637806e-08,-1.82810374911e-12,1.71779654872e-10,0.997886464
1588168444003158503,152.395784782,1128.15407684,1.93732451693e-10,2.75870875129e-08,1.64901445205e-12,-1.74056833758e-10,-1.45006887359e-08,-1.62390722614e-12,1.56379469561e-10,1.097661696
1588168444103141927,152.395784785,1128.15407684,1.76332179707e-10,2.61374694625e-08,1.48667421636e-12,-1.58423748605e-10,-1.37464086399e-08,-1.46479513631e-12,1.4233409662e-10,1.197645056
1588168444203125117,152.395784787,1128.15407684,1.60491557428e-10,2.47629806699e-08,1.34021090721e-12,-1.44191913532e-10,-1.30307552788e-08,-1.35112087534e-12,1.29547661019e-10,1.29762816
1588168444305424618,152.39578479,1128.15407684,1.46001148546e-10,2.34534691486e-08,1.20443149036e-12,-1.31173162813e-10,-1.23484927184e-08,-1.21402286011e-12,1.17851107415e-10,1.399927808
1588168444403688850,152.395784792,1128.15407684,1.32947206139e-10,2.22245858215e-08,1.08361573692e-12,-1.19444989643e-10,-1.17078257106e-08,-1.12351279538e-12,1.07314058785e-10,1.498192128
1588168444503514034,152.395784794,1128.15407684,1.21020858992e-10,2.10555824653e-08,9.7143519538e-13,-1.08729892067e-10,-1.10979919433e-08,-1.05540435332e-12,9.76871966054e-11,1.59801728
1588168444603697060,152.395784797,1128.15407684,1.10135903624e-10,1.99445618924e-08,8.6577860856e-13,-9.89504215386e-11,-1.05180432113e-08,-9.8711718053e-13,8.89009381234e-11,1.69820032
1588168444703670447,152.395784799,1128.15407684,1.00236813148e-10,1.88923272505e-08,7.67026504949e-13,-9.00566905552e-11,-9.96843674914e-09,-8.96130500534e-13,8.09104625022e-11,1.798173696
1588168444806082043,152.3957848,1128.15407684,9.12018659802e-11,1.78922427613e-08,6.77122116082e-13,-8.19393397008e-11,-9.44574672701e-09,-7.82074058292e-13,7.36175170044e-11,1.900585216
1588168444903616151,152.395784802,1128.15407684,8.30345672029e-11,1.6950738522e-08,5.9916893116e-13,-7.46015181024e-11,-8.95337178148e-09,-6.91420228363e-13,6.70249309618e-11,1.998119424
1588168445005829370,152.395784804,1128.15407684,7.55639107519e-11,1.60541406194e-08,5.29929549433e-13,-6.78895872248e-11,-8.48419866185e-09,-6.00342692225e-13,6.09946695321e-11,2.100332544
1588168445103432194,152.395784806,1128.15407684,6.88078001798e-11,1.52098258045e-08,4.7018575402e-13,-6.1819632339e-11,-8.04211744897e-09,-4.87205924476e-13,5.55411843758e-11,2.19793536
1588168445203804382,152.395784807,1128.15407684,6.26223202327e-11,1.44051565703e-08,4.21437446048e-13,-5.62623543483e-11,-7.62054510919e-09,-4.18955018247e-13,5.05483081428e-11,2.298307584
1588168445303310675,152.395784808,1128.15407684,5.70055336128e-11,1.36443818693e-08,3.79612304387e-13,-5.12160127203e-11,-7.22173396008e-09,-3.50857472416e-13,4.60144770879e-11,2.39781376
1588168445403630000,152.39578481,1128.15407684,5.18834732129e-11,1.29221437338e-08,3.4452341187e-13,-4.6614152513e-11,-6.84290327538e-09,-2.82639254882e-13,4.18799855025e-11,2.498133248
1588168445506354800,152.395784811,1128.15407684,4.72090927425e-11,1.22359501272e-08,3.16180873349e-13,-4.24145055007e-11,-6.48276979288e-09,-2.37038036768e-13,3.81068579689e-11,2.600857856
1588168445604319056,152.395784812,1128.15407684,4.29820260789e-11,1.15898716275e-08,2.92557455573e-13,-3.86167427525e-11,-6.14349402065e-09,-1.91717518597e-13,3.46947989741e-11,2.698822144
1588168445704558412,152.395784814,1128.15407684,3.91060202669e-11,1.09732422374e-08,2.73314553055e-13,-3.51343868394e-11,-5.81949932715e-09,-1.46074016598e-13,3.15661138144e-11,2.799061504
1588168445804575271,152.395784815,1128.15407684,3.56065656302e-11,1.03936085584e-08,2.58765291188e-13,-3.19903392755e-11,-5.51477013249e-09,-1.0078027822e-13,2.87413781167e-11,2.8990784
1588168445904217017,152.395784816,1128.15407684,3.24117220266e-11,9.84285390927e-09,2.48700464289e-13,-2.91199662156e-11,-5.22506180202e-09,-7.80726937093e-14,2.61625223058e-11,2.998720256
1588168446003941844,152.395784817,1128.15407684,2.94979230695e-11,9.3200243319e-09,2.40888362729e-13,-2.65020946959e-11,-4.94988952815e-09,-5.53212532207e-14,2.38105237662e-11,3.098445056
1588168446104186075,152.395784818,1128.15407684,2.68449612213e-11,8.82452130765e-09,2.3535049201e-13,-2.41185694742e-11,-4.68895692533e-09,-3.25602717531e-14,2.16690711208e-11,3.19868928
1588168446206083910,152.395784818,1128.15407684,2.44400989572e-11,8.35698547058e-09,2.32103907716e-13,-2.19579466605e-11,-4.44261629123e-09,-3.25602717531e-14,1.97278827342e-11,3.300587008
1588168446303702697,152.395784819,1128.15407684,2.22461229935e-11,7.91309180832e-09,2.28850577398e-13,-1.99867923808e-11,-4.20860615181e-09,-3.25602717531e-14,1.79569203051e-11,3.398205952
1588168446403673883,152.39578482,1128.15407684,2.02474027745e-11,7.49222256382e-09,2.25594483461e-13,-1.81910635315e-11,-3.98661454923e-09,-3.25602717531e-14,1.63435669607e-11,3.498177024
1588168446504149356,152.395784821,1128.15407684,1.84289877531e-11,7.09371261588e-09,2.22339693704e-13,-1.6557327955e-11,-3.77630564336e-09,-3.25602717531e-14,1.48757547262e-11,3.598652416
1588168446605116155,152.395784822,1128.15407684,1.67699445215e-11,6.71532702523e-09,2.19077156499e-13,-1.50667782564e-11,-3.57651092001e-09,-3.25602717531e-14,1.35365863013e-11,3.699619328
1588168446704965325,152.395784822,1128.15407684,1.52663250949e-11,6.35840192767e-09,2.15827738719e-13,-1.37158674122e-11,-3.3879497759e-09,-9.86905869527e-15,1.23228749029e-11,3.799468544
1588168446803640355,152.395784823,1128.15407684,1.38969600716e-11,6.02015573555e-09,2.14842431456e-13,-1.24855760007e-11,-3.20916318251e-09,1.28314785013e-14,1.1217532737e-11,3.898143488
1588168446904821541,152.395784823,1128.15407684,1.26458674343e-11,5.69858783759e-09,2.16128184574e-13,-1.13615451499e-11,-3.03910546917e-09,3.56150113741e-14,1.020765923e-11,3.999324672
1588168447003712522,152.395784824,1128.15407684,1.1513156892e-11,5.39559852068e-09,2.19678889897e-13,-1.03438734275e-11,-2.87878997713e-09,3.56150113741e-14,9.29334294048e-12,4.09821568
1588168447104221703,152.395784825,1128.15407684,1.04741341331e-11,5.10642944632e-09,2.23256351246e-13,-9.41037449316e-12,-2.72570983118e-09,1.27757505096e-14,8.45465078909e-12,4.198724864
1588168447203990690,152.395784825,1128.15407684,9.5345738754e-12,4.83428633093e-09,2.24531920826e-13,-8.56623658131e-12,-2.58156979847e-09,1.27757505096e-14,7.69624409063e-12,4.298493952
1588168447307617481,152.395784826,1128.15407684,8.65265448768e-12,4.56850608608e-09,2.25847222121e-13,-7.7738854932e-12,-2.44073006828e-09,1.27757505096e-14,6.98436470807e-12,4.402120704
1588168447404520633,152.395784826,1128.15407684,7.90171339702e-12,4.33273666279e-09,2.27081332917e-13,-7.09921046023e-12,-2.31572915371e-09,1.27757505096e-14,6.37821011921e-12,4.499023872
1588168447506225360,152.395784826,1128.15407684,7.18924399703e-12,4.10033248631e-09,2.2836349399e-13,-6.45909990679e-12,-2.19245385887e-09,1.27757505096e-14,5.80310961615e-12,4.600728576
1588168447604088992,152.395784827,1128.15407684,6.54476833387e-12,3.88157396344e-09,2.29638232019e-13,-5.88007760148e-12,-2.07636015035e-09,1.27757505096e-14,5.28289319639e-12,4.698592256
1588168447705338504,152.395784827,1128.15407684,5.95493162922e-12,3.67329211552e-09,2.30919780851e-13,-5.3501450861e-12,-1.96577370023e-09,1.27757505096e-14,4.80678097354e-12,4.799841792
1588168447811249227,152.395784828,1128.15407684,5.38599118944e-12,3.46424953153e-09,2.32278368514e-13,-4.83898659657e-12,-1.85473009667e-09,1.27757505096e-14,4.34753607261e-12,4.90575232
1588168447904277049,152.395784828,1128.15407684,4.93633839626e-12,3.2919025841e-09,2.33465528633e-13,-4.43500082403e-12,-1.76313328942e-09,1.27757505096e-14,3.98457935658e-12,4.99878016
1588168448005368160,152.395784828,1128.15407684,4.49209327926e-12,3.11529306688e-09,2.34745249879e-13,-4.03587351996e-12,-1.6692296391e-09,1.27757505096e-14,3.62598767881e-12,5.099871232
1588168448103447860,152.395784829,1128.15407684,4.09047502907e-12,2.94918451974e-09,2.36016591644e-13,-3.67504387067e-12,-1.58086776562e-09,1.27757505096e-14,3.30180412036e-12,5.197950976
1588168448203412138,152.395784829,1128.15407684,3.72287110582e-12,2.7910549264e-09,2.37294512718e-13,-3.34477403141e-12,-1.49671174497e-09,1.27757505096e-14,3.00507669722e-12,5.297915392
1588168448303188778,152.395784829,1128.15407684,3.38862049925e-12,2.64148523831e-09,2.38571221493e-13,-3.04447012466e-12,-1.41707485986e-09,1.27757505096e-14,2.73527184659e-12,5.397691904
1588168448403229849,152.395784829,1128.15407684,3.08425216981e-12,2.49981437602e-09,2.3984846636e-13,-2.77101363193e-12,-1.3416077299e-09,1.27757505096e-14,2.48958776893e-12,5.49773312
1588168448509955746,152.39578483,1128.15407684,2.80614752662e-12,2.36516785724e-09,2.41130667031e-13,-2.52115346878e-12,-1.26984978527e-09,1.27757505096e-14,2.2651035621e-12,5.604459008
1588168448603196471,152.39578483,1128.15407684,2.55512099386e-12,2.23873129053e-09,2.424027246e-13,-2.29562134605e-12,-1.20243670024e-09,1.27757505096e-14,2.06247662406e-12,5.697699584
1588168448703354817,152.39578483,1128.15407684,2.32550817754e-12,2.11846107364e-09,2.43680581709e-13,-2.08932814919e-12,-1.13828326819e-09,1.27757505096e-14,1.87713469407e-12,5.797858048
1588168448803134707,152.39578483,1128.15407684,2.11678627283e-12,2.00474765245e-09,2.44956867093e-13,-1.90180416982e-12,-1.07760170856e-09,1.27757505096e-14,1.70865576769e-12,5.897637888
1588168448903517881,152.395784831,1128.15407684,1.9266645291e-12,1.89702072708e-09,2.46234047995e-13,-1.73099130742e-12,-1.02008894382e-09,1.27757505096e-14,1.55519076647e-12,5.99802112
1588168449012445409,152.395784831,1128.15407684,1.74066289538e-12,1.78740827017e-09,2.4760685123e-13,-1.56388011393e-12,-9.61542591282e-10,1.27757505096e-14,1.4050514901e-12,6.106948608
1588168449103645934,152.395784831,1128.15407684,1.59584593776e-12,1.69836840615e-09,2.4878989928e-13,-1.43377085537e-12,-9.13963456598e-10,1.27757505096e-14,1.28815620884e-12,6.19814912
1588168449203553119,152.395784831,1128.15407684,1.45247890225e-12,1.60697846692e-09,2.5006738478e-13,-1.30496426382e-12,-8.6510854173e-10,1.27757505096e-14,1.17243129476e-12,6.298056192
1588168449303420871,152.395784831,1128.15407684,1.32214967591e-12,1.52057845577e-09,2.51343322923e-13,-1.18787135345e-12,-8.18901541234e-10,1.27757505096e-14,1.06723041296e-12,6.397924096
1588168449403461566,152.395784831,1128.15407684,1.20342665944e-12,1.43873250429e-09,2.52620208365e-13,-1.08120591908e-12,-7.7511241485e-10,1.27757505096e-14,9.71397986098e-13,6.4979648
1588168449503964513,152.395784832,1128.15407684,1.09531596627e-12,1.36122835917e-09,2.5389766645e-13,-9.84075013885e-13,-7.33628333381e-10,1.27757505096e-14,8.84131755615e-13,6.598467584
1588168449604054762,152.395784832,1128.15407684,9.96820810191e-13,1.28780017922e-09,2.55176379478e-13,-8.95583085895e-13,-6.94309565839e-10,1.27757505096e-14,8.0462712238e-13,6.698557952
1588168449705398270,152.395784832,1128.15407684,9.06795824319e-13,1.2180074265e-09,2.56460611815e-13,-8.14701092404e-13,-6.56921682089e-10,1.27757505096e-14,7.3195955392e-13,6.79990144
1588168449803468899,152.395784832,1128.15407684,8.25931044231e-13,1.15280335613e-09,2.57728694385e-13,-7.42048988567e-13,-6.21978704209e-10,1.27757505096e-14,6.66686042383e-13,6.897971968
1588168449906470552,152.395784832,1128.15407684,7.49449454983e-13,1.08869718456e-09,2.59045466887e-13,-6.73334915997e-13,-5.87609847588e-10,1.27757505096e-14,6.04950613175e-13,7.000973824
1588168450003732712,152.395784832,1128.15407684,6.84206039974e-13,1.03176018005e-09,2.60283385154e-13,-6.14717661823e-13,-5.57072006071e-10,1.27757505096e-14,5.52286563238e-13,7.098235904
1588168450103218702,152.395784832,1128.15407684,6.2283135521e-13,9.76140956971e-10,2.6155894255e-13,-5.59576227269e-13,-5.27229519679e-10,1.27757505096e-14,5.02745326508e-13,7.197721856
1588168450203838699,152.395784832,1128.15407684,5.6685644211e-13,9.23401714113e-10,2.6283691236e-13,-5.09286160267e-13,-4.98920568562e-10,1.27757505096e-14,4.57562749433e-13,7.298341888
1588168450303414771,152.395784832,1128.15407684,5.15975715426e-13,8.73556571899e-10,2.64113286078e-13,-4.63572910996e-13,-4.72155456788e-10,1.27757505096e-14,4.1649216565e-13,7.397917952
1588168450404443866,152.395784833,1128.15407684,4.69491033909e-13,8.26211277309e-10,2.65394371921e-13,-4.21809241861e-13,-4.46722223984e-10,1.27757505096e-14,3.78970040205e-13,7.498947072
1588168450507541398,152.395784833,1128.15407684,4.25948068334e-13,7.80096568359e-10,2.66713200456e-13,-3.82688526198e-13,-4.21939916061e-10,1.27757505096e-14,3.43822448241e-13,7.602044672
1588168450603849548,152.395784833,1128.15407684,3.88988364514e-13,7.39346001619e-10,2.67947070621e-13,-3.49482472231e-13,-4.00031844509e-10,1.27757505096e-14,3.13988821308e-13,7.69835264
1588168450704750366,152.395784833,1128.15407684,3.54009404391e-13,6.99307661935e-10,2.69225768419e-13,-3.18055996421e-13,-3.78498413816e-10,1.27757505096e-14,2.85754037474e-13,7.799253504
1588168450805563102,152.395784833,1128.15407684,3.22166602326e-13,6.61413548292e-10,2.70504837826e-13,-2.89447168551e-13,-3.58110439433e-10,1.27757505096e-14,2.60050739528e-13,7.900066304
1588168450903500388,152.395784833,1128.15407684,2.93413207638e-13,6.25839212366e-10,2.71773968212e-13,-2.63613985971e-13,-3.38963657922e-10,1.27757505096e-14,2.36841190637e-13,7.998003456
1588168451003313337,152.395784833,1128.15407684,2.67047874601e-13,5.9193778754e-10,2.73051733941e-13,-2.39926332051e-13,-3.20709933248e-10,1.27757505096e-14,2.15559269203e-13,8.097816576
1588168451106378811,152.395784833,1128.15407684,2.42941487719e-13,5.59714739482e-10,2.74335366221e-13,-2.18268204346e-13,-3.03352601607e-10,1.27757505096e-14,1.9610075406e-13,8.20088192
1588168451206007635,152.395784833,1128.15407684,2.21174481135e-13,5.29462609557e-10,2.75609440226e-13,-1.9871186806e-13,-2.87052068967e-10,1.27757505096e-14,1.7853057112e-13,8.30051072
1588168451303630459,152.395784833,1128.15407684,2.01381579425e-13,5.00870490515e-10,2.76881982106e-13,-1.80929145362e-13,-2.71640247354e-10,1.27757505096e-14,1.62553872491e-13,8.398133504
1588168451406663017,152.395784833,1128.15407684,1.82996818083e-13,4.73268297907e-10,2.78180165014e-13,-1.64411551444e-13,-2.56756854672e-10,1.27757505096e-14,1.47713815391e-13,8.50116608
1588168451506538972,152.395784833,1128.15407684,1.66471166073e-13,4.47460656083e-10,2.79464305972e-13,-1.49564254593e-13,-2.42835776176e-10,1.27757505096e-14,1.34374418972e-13,8.601042176
1588168451604200098,152.395784833,1128.15407684,1.51849770215e-13,4.23721039812e-10,2.80713262857e-13,-1.36427816489e-13,-2.30025477785e-10,1.27757505096e-14,1.22572125449e-13,8.69870336
1588168451703939357,152.395784833,1128.15407684,1.38213799704e-13,4.00729976021e-10,2.81990200081e-13,-1.24176723339e-13,-2.17614942513e-10,1.27757505096e-14,1.11565260709e-13,8.798442496
1588168451804192527,152.395784833,1128.15407684,1.2578121777e-13,3.78942353267e-10,2.83269309085e-13,-1.13006801896e-13,-2.05849877659e-10,-9.98891724543e-15,1.0152976322e-13,8.89869568
1588168451906439273,152.395784833,1128.15407684,1.14457161902e-13,3.5831478505e-10,2.82268351134e-13,-1.02832823943e-13,-1.94707593932e-10,-3.277331748e-14,9.23890605981e-14,9.000942336
1588168452003859178,152.395784833,1128.15407684,1.04226625932e-13,3.3894389775e-10,2.79007829926e-13,-9.36413073489e-14,-1.84239846535e-10,-5.53940573966e-14,8.41310399643e-14,9.098362368
1588168452104411474,152.395784833,1128.15407684,9.48674604607e-14,3.20529682284e-10,2.73471361417e-13,-8.52326643413e-14,-1.74285450057e-10,-3.26687461805e-14,7.6576383802e-14,9.19891456
1588168452203403226,152.395784834,1128.15407684,8.63400973028e-14,3.03092760216e-10,2.70202916569e-13,-7.7571345303e-14,-1.6485628124e-10,-3.26687461805e-14,6.96931529349e-14,9.297906432
1588168452303807259,152.395784834,1128.15407684,7.85895726889e-14,2.86621179627e-10,2.66938825681e-13,-7.06079686188e-14,-1.55945148544e-10,-3.26687461805e-14,6.34369809748e-14,9.3983104
1588168452403896297,152.395784834,1128.15407684,7.1526661445e-14,2.71021994937e-10,2.63670972785e-13,-6.42623708772e-14,-1.47503505346e-10,-3.26687461805e-14,5.77358459549e-14,9.498399488
1588168452503780239,152.395784834,1128.15407684,6.50983774258e-14,2.56266946014e-10,2.60403057579e-13,-5.84869472379e-14,-1.39515882616e-10,-3.26687461805e-14,5.25469778114e-14,9.59828352
1588168452610280059,152.395784834,1128.15407684,5.92424372048e-14,2.42298074205e-10,2.57132135882e-13,-5.32257398166e-14,-1.31952033574e-10,-3.26687461805e-14,4.78201017767e-14,9.704783104
1588168452710267907,152.395784834,1128.15407684,5.39162516477e-14,2.29093917384e-10,2.53863044561e-13,-4.84404848572e-14,-1.24799123413e-10,-3.26687461805e-14,4.35208401849e-14,9.804771072
1588168452806074946,152.395784834,1128.15407684,4.90992904482e-14,2.16683791082e-10,2.50614437879e-13,-4.4112737124e-14,-1.18073995163e-10,-3.26687461805e-14,3.96326211099e-14,9.900578048
1588168452910055005,152.395784834,1128.15407684,4.46639678866e-14,2.04812021411e-10,2.47329753308e-13,-4.01278685793e-14,-1.11639246767e-10,-3.26687461805e-14,3.60524582065e-14,10.00455808
1588168453005283422,152.395784834,1128.15407684,4.06616514045e-14,1.93677226238e-10,2.44071402792e-13,-3.65320297568e-14,-1.05602635994e-10,-3.26687461805e-14,3.28218149327e-14,10.099786496
1588168453103860320,152.395784834,1128.15407684,3.7024852682e-14,1.83164382187e-10,2.40819197668e-13,-3.3264586491e-14,-9.99006704574e-11,-3.26687461805e-14,2.98862151651e-14,10.198363392
1588168453203651425,152.395784834,1128.15407684,3.37005226853e-14,1.7318070794e-10,2.37554413574e-13,-3.02778774396e-14,-9.44834087355e-11,-3.26687461805e-14,2.72028380764e-14,10.298154496
1588168453305889090,152.395784834,1128.15407684,3.06592964074e-14,1.63690431548e-10,2.34273039258e-13,-2.75455199236e-14,-8.9332661753e-11,-3.26687461805e-14,2.47479804281e-14,10.400392192
