%time,field.pos_north,field.pos_east,field.pos_heading,field.vel_north,field.vel_east,field.vel_heading,field.acc_north,field.acc_east,field.acc_heading,secs_since_start
1589837784705167930,152.395784834,1128.15407684,0.0,0.0,0.0,0.0,0.0,0.0,0.0,0.0
1589837784808684903,152.395784834,1128.15407684,0.0,0.0,0.0,0.0,0.0,0.0,0.0,0.103516928
1589837784904439188,152.395784834,1128.15407684,0.0,0.0,0.0,0.0,0.0,0.0,0.0,0.199271424
1589837785012598222,152.395784834,1128.15407684,0.0,0.0,0.0,0.0,0.0,0.0,0.0,0.3074304
1589837785104467968,152.395784834,1128.15407684,0.0,0.0,0.0,0.0,0.0,0.0,0.0,0.399300096
1589837785205587212,152.395784834,1128.15407684,0.0,0.0,0.0,0.0,0.0,0.0,0.0,0.500419328
1589837785304879547,152.395784834,1128.15407684,0.0,0.0,0.0,0.0,0.0,0.0,0.0,0.599711744
1589837785404075581,152.395784834,1128.15407684,0.0,0.0,0.0,0.0,0.0,0.0,0.0,0.698907648
1589837785506905837,152.395784834,1128.15407684,0.0,0.0,0.0,0.0,0.0,0.0,0.0,0.801737984
1589837785610355565,152.395784834,1128.15407684,0.0,0.0,0.0,0.0,0.0,0.0,0.0,0.905187584
1589837785705545174,152.395784834,1128.15407684,0.0,0.0,0.0,0.0,0.12857093811,0.792258882523,-12.24995327,1.000377344
1589837785804188517,152.395784834,1128.15407684,0.0,0.0127174539443,0.0783654222218,-1.21169075081,0.233871945785,1.32357945852,-19.0354680668,1.099020544
1589837785905596991,152.39706505,1128.16196557,-0.121976117031,0.0362604180302,0.211604933066,-3.12791605756,0.320575173161,1.65917200115,-22.1159878642,1.200429056
1589837786003924487,152.400660087,1128.18294513,-0.432093153145,0.0680438229307,0.376103434283,-5.32060425026,0.387946824919,1.83090159649,-22.5569233049,1.298756608
1589837786105636941,152.407498287,1128.2207424,-0.966797957697,0.107031317854,0.560103565519,-7.58750753788,0.440522370156,1.88520470871,-21.3377428675,1.400468992
1589837786205202209,152.418167189,1128.27657363,-1.72312211517,0.150942669348,0.748021120246,-9.71445770118,0.478892842489,1.84961057444,-19.109409378,1.500034304
1589837786304056217,152.433204401,1128.351093,-2.69089592893,0.198650937458,0.93228304558,-11.618175496,0.505406265665,1.75037960041,-16.3411647547,1.598888448
1589837786404122703,152.453067297,1128.44431099,-3.85258495105,0.249185972906,1.10730164183,-13.2521111953,0.521768763629,1.60672862917,-13.3433531039,1.698954752
1589837786504857141,152.478021517,1128.55519945,-5.17969053647,0.30143743913,1.26820419589,-14.5883540151,0.529311767663,1.43428134863,-10.3403706523,1.799689216
1589837786604809632,152.508139647,1128.6819121,-6.6372863308,0.354323639015,1.41151045646,-15.6215124344,0.529304100224,1.24598110032,-7.48718835737,1.899641856
1589837786704775138,152.543502199,1128.82278504,-8.19635968149,0.407149760719,1.53586307194,-16.3687560761,0.522948093113,1.0511587819,-4.86701669792,1.999607296
1589837786805023464,152.584196848,1128.97629467,-9.8324180814,0.459418461925,1.64092647118,-16.8552147608,0.511260405087,0.856450283213,-2.52020053941,2.099855616
1589837786906247421,152.630212148,1129.14064967,-11.5206344282,0.510626244536,1.72670843177,-17.1076377532,0.495120875524,0.667025811981,-0.466265817572,2.201079552
1589837787004015223,152.681015411,1129.31244348,-13.2227087734,0.559886846857,1.79307221259,-17.154027506,0.475488082877,0.488311660036,1.27689457204,2.298847232
1589837787104630978,152.737061175,1129.4919335,-14.9398603391,0.607484130101,1.84195316088,-17.0262078722,0.452848410889,0.32053412804,2.74565899076,2.399463168
1589837787205395024,152.798067048,1129.67690946,-16.6496970523,0.652960894173,1.87414242017,-16.7504783276,0.427850343995,0.166008009124,3.95102595861,2.500227072
1589837787308941202,152.863381445,1129.86437625,-18.3252145354,0.695757924651,1.89074787562,-16.3552649527,0.401220745364,0.0267836210166,4.90781139589,2.60377344
1589837787405058639,152.932822309,1130.05308436,-19.9575692595,0.73580219058,1.89342104359,-15.8654355834,0.373413100596,-0.0971964029355,5.64613832026,2.699890688
1589837787503997867,153.005924941,1130.2411975,-21.5338150278,0.772901129122,1.88376449063,-15.3044864946,0.344918256442,-0.205881279888,6.19225869,2.79883008
1589837787605511862,153.083546673,1130.4303822,-23.0708301908,0.80754094473,1.86308802762,-14.682603787,0.315655604657,-0.301350596965,6.57963453648,2.900344064
1589837787706255338,153.164148012,1130.61633857,-24.536313189,0.839046795371,1.83300997179,-14.0258849455,0.286422919787,-0.382428438645,6.82306182077,3.001087488
1589837787803922837,153.247675128,1130.79881473,-25.9325901584,0.867560199548,1.79493921737,-13.3466490814,0.257384357326,-0.450429329629,6.94756670839,3.098755072
1589837787910053408,153.33473471,1130.97893671,-27.2719251006,0.893388694867,1.74973867779,-12.6494614354,0.228456976229,-0.506962321661,6.97407027983,3.204885504
1589837788006139198,153.424008316,1131.15378276,-28.5359471826,0.916217703376,1.69907947995,-11.9525638734,0.20018809007,-0.552175691399,6.91888559703,3.300971264
1589837788108459088,153.515564029,1131.3235682,-29.7303418166,0.936222079267,1.64390172146,-11.26117415,0.172612990057,-0.5873590376,6.79822387503,3.403291136
1589837788208403556,153.609018515,1131.48766387,-30.8544418179,0.953452455049,1.58527104173,-10.5825696488,0.145891393714,-0.613479303238,6.62594299153,3.503235584
1589837788306390127,153.704281834,1131.64605476,-31.9117894643,0.968029058548,1.52397582526,-9.92054469076,0.120074432763,-0.631569398639,6.41354970799,3.601222144
1589837788405062520,153.800986098,1131.79829705,-32.9028330289,0.980024266228,1.46088324238,-9.27984326133,0.0952756570928,-0.642525807677,6.1712872154,3.699894528
1589837788504763189,153.898773935,1131.9440655,-33.8287854069,0.989530970034,1.39677135139,-8.66406582719,0.0715830627726,-0.647228299484,5.90798342424,3.799595264
1589837788604791262,153.997665598,1132.08365591,-34.6946540881,0.996684832134,1.33208870409,-8.07363427718,0.0489782448723,-0.6465188925,5.63010028135,3.899623424
1589837788708429167,154.097117744,1132.21657565,-35.5002650828,1.00157202559,1.26757714583,-7.51184629764,0.0275661518239,-0.641154501821,5.34443326271,4.003261184
1589837788804579568,154.197230913,1132.34327763,-36.2511194589,1.00432742884,1.20348988361,-6.97763793609,0.00729459106321,-0.631826714403,5.05495721996,4.099411712
1589837788905178077,154.297747847,1132.46372751,-36.9494681737,1.00505749944,1.14025424742,-6.47171846728,-0.0118130370721,-0.619162745263,4.76577586662,4.20001024
1589837789004954774,154.398344079,1132.57785559,-37.5972226489,1.00387513224,1.07828223161,-5.99471183281,-0.029731418258,-0.603751973998,4.48044752684,4.299787008
1589837789108185487,154.49841341,1132.68534204,-38.1947937863,1.00091141389,1.01809839561,-5.54808717436,-0.0464005555105,-0.586191061016,4.20265147556,4.403017728
1589837789208837697,154.598371536,1132.78701658,-38.7488651934,0.996277524723,0.959557191088,-5.12838053614,-0.0619429829439,-0.566854858379,3.93263462034,4.50366976
1589837789304061769,154.697677576,1132.88266245,-39.2600472205,0.990103228693,0.90305475069,-4.73638697737,-0.0763205139611,-0.546223134261,3.67286474288,4.598893824
1589837789404049844,154.796681903,1132.97296245,-39.7336572355,0.982471639481,0.848435745099,-4.36912274533,-0.0896340470858,-0.524554431524,3.42305533653,4.698882048
1589837789509135962,154.895357398,1133.05817592,-40.1724743261,0.973469156818,0.79575161079,-4.02532485466,-0.101919561299,-0.502129980202,3.18371695763,4.803968
1589837789605271452,154.992444508,1133.13753871,-40.5739325097,0.963304401568,0.74567262411,-3.70780284761,-0.113069638972,-0.479481118118,2.95802641232,4.90010368
1589837789705450602,155.088685285,1133.21203657,-40.9443676773,0.952007962036,0.697769141736,-3.41227553538,-0.123232360155,-0.45665155611,2.74405095723,5.000282624
1589837789804806344,155.183774545,1133.28173173,-41.2851954525,0.939699163787,0.652157486914,-3.13819192962,-0.132423264383,-0.433887881841,2.54226652055,5.099638528
1589837789909399277,155.277739667,1133.34694415,-41.5989986339,0.926457512993,0.608770912494,-2.88397824861,-0.140694742201,-0.411330065794,2.35227242405,5.204231424
1589837790004913717,155.370232699,1133.40772089,-41.8869210563,0.91241123126,0.567705710635,-2.64913876092,-0.148065154763,-0.389182194218,2.17434454597,5.299745792
1589837790104705264,155.461462858,1133.46448464,-42.1518030995,0.897606494979,0.528792167742,-2.43173043389,-0.154601128285,-0.367491873339,2.00756920069,5.399537408
1589837790204362311,155.5510107,1133.51723849,-42.3943996199,0.882183035517,0.492130106643,-2.23144947522,-0.160319482483,-0.346436428234,1.85218356649,5.499194368
1589837790311205928,155.644944816,1133.56964009,-42.6320025033,0.865112350418,0.455241844022,-2.03423051019,-0.165612710667,-0.324667851938,1.69758659968,5.606038016
1589837790404583518,155.725826751,1133.61220201,-42.8221887854,0.849628723781,0.424887677484,-1.87551807208,-0.169542876695,-0.306272048528,1.57190591204,5.699415552
1589837790504978302,155.810979146,1133.65478556,-43.010158954,0.832636617128,0.394192154234,-1.71797684459,-0.173121932304,-0.287270669273,1.44614569905,5.799810304
1589837790606272772,155.894000538,1133.69409008,-43.1814567655,0.8153747965,0.365548673314,-1.57378305396,-0.176044408046,-0.269160279916,1.33011371863,5.901104896
1589837790704667705,155.975501393,1133.73062852,-43.3387643797,0.797778263268,0.33864473548,-1.44083142823,-0.178377303473,-0.251815112698,1.22233967236,5.999499776
1589837790804942395,156.055260884,1133.76448521,-43.4828144071,0.779944632665,0.313469011816,-1.3186255547,-0.180150911224,-0.235286993611,1.1226008455,6.099774464
1589837790905437719,156.13338544,1133.7958844,-43.6148969062,0.761899492796,0.28990106714,-1.20617822298,-0.18140453774,-0.21955068791,1.03024810224,6.200269824
1589837791010270858,156.210053059,1133.82505626,-43.7362709365,0.743645308264,0.267808352034,-1.10250750335,-0.182173832261,-0.204564263726,0.944606061296,6.305103104
1589837791103957117,156.283424113,1133.85147931,-43.8450487867,0.725671301019,0.247625214244,-1.0093088481,-0.182480279959,-0.190668011068,0.867196161071,6.39878912
1589837791204976216,156.356120415,1133.87628591,-43.9461593319,0.707390790929,0.2285244736,-0.9224348682,-0.182379158822,-0.17733610098,0.794683331632,6.499808256
1589837791306030562,156.426594301,1133.89905269,-44.0380570077,0.689221247056,0.210857344922,-0.843264453374,-0.181894189143,-0.164842612846,0.728292298573,6.60086272
1589837791410263164,156.495763173,1133.92021391,-44.1226853495,0.670966708323,0.194314068442,-0.770174488072,-0.181051608504,-0.152999805854,0.666736065965,6.705095168
1589837791504849832,156.562702209,1133.93959967,-44.1995218554,0.652904083316,0.179050033275,-0.703657522892,-0.179888993448,-0.141944755387,0.610489063833,6.799682048
1589837791604924617,156.627963912,1133.9574968,-44.2698566718,0.63492309268,0.16486179825,-0.642635456286,-0.178428673219,-0.131555806625,0.558695539424,6.8997568
1589837791709364204,156.691422555,1133.97397424,-44.3340861421,0.617089686412,0.151713193241,-0.586795526779,-0.176699191673,-0.121827581456,0.511134798804,7.004196352
1589837791806313014,156.753132789,1133.98914587,-44.392766898,0.599419404941,0.1395301853,-0.535680998868,-0.1747247576,-0.112724526287,0.467456905178,7.101145088
1589837791904806159,156.81300879,1134.00308354,-44.4462760695,0.581966150011,0.128270133083,-0.48898673157,-0.172532726826,-0.104231930774,0.427434646452,7.199638272
1589837792004014623,156.870998193,1134.01586488,-44.4950006369,0.564774308348,0.117884052234,-0.446395456871,-0.170149732714,-0.096328485044,0.390825371037,7.29884672
1589837792106309708,156.927828091,1134.02772686,-44.539918771,0.547653147271,0.108191086617,-0.407069011722,-0.167566996197,-0.0888898491398,0.356932803733,7.40114176
1589837792206501888,156.982755522,1134.03857799,-44.580746173,0.530846844384,0.0992757884851,-0.371270071918,-0.164835549357,-0.0819920221462,0.326003014295,7.501334016
1589837792305273176,157.035614113,1134.04846329,-44.6177150522,0.514433494713,0.0911115075705,-0.338808618742,-0.161987359173,-0.0756260988187,0.29789124609,7.600105216
1589837792404413943,157.086614032,1134.0574959,-44.6513038683,0.498374388422,0.0836140857622,-0.309276269992,-0.159034439228,-0.069737004106,0.272260595473,7.69924608
1589837792509981029,157.136668748,1134.06589376,-44.6823663312,0.482401609903,0.0766099819555,-0.28193151239,-0.155941157483,-0.0641967342447,0.248480482045,7.804813056
1589837792604501922,157.184671475,1134.07351706,-44.7104207182,0.466884247038,0.0702219056061,-0.257205764121,-0.152789802966,-0.059109232474,0.226936553761,7.899334144
1589837792709087059,157.231501781,1134.08056059,-44.7362194564,0.451558835704,0.0642930197533,-0.234443145377,-0.14954124649,-0.05435683233,0.207067681741,8.003919104
1589837792806384608,157.2767543,1134.08700365,-44.7597139428,0.436572708553,0.0588457039127,-0.213692063783,-0.146236605448,-0.0499630479527,0.1889239745,8.101216768
1589837792908704504,157.320202002,1134.09285997,-44.7809805702,0.422019246254,0.0538733829776,-0.194890355881,-0.142908860744,-0.0459282527318,0.172458622435,8.20353664
1589837793006001973,157.362308904,1134.09823518,-44.8004257238,0.407760537897,0.0492908990249,-0.177683324853,-0.139538361459,-0.0421884418941,0.157367515446,8.300834048
1589837793104825138,157.403077238,1134.10316333,-44.8181906926,0.393809343273,0.0450728534811,-0.161949552344,-0.136137158377,-0.0387269828857,0.143549284821,8.399657216
1589837793205354882,157.442488462,1134.10767409,-44.834398104,0.380185156604,0.0411971765518,-0.147583582936,-0.132718767681,-0.0355294796627,0.130915781064,8.500187136
1589837793304961022,157.48044612,1134.11178721,-44.849132838,0.366934524691,0.0376499159397,-0.134512961073,-0.129303660249,-0.0325878366734,0.119407225877,8.599793152
1589837793405137610,157.517101744,1134.11554832,-44.8625702669,0.354017488864,0.034394491824,-0.122584548438,-0.125890136553,-0.0298748203784,0.10889221995,8.699969792
1589837793504241521,157.552363348,1134.11897415,-44.8747801941,0.341478311363,0.0314188363375,-0.111738433629,-0.122497728938,-0.0273830877088,0.0993208561885,8.799073536
1589837793605158077,157.586635141,1134.12212744,-44.8859946003,0.329184069818,0.0286705870641,-0.101770292937,-0.119097592865,-0.0250711768235,0.0905152934655,8.899990272
1589837793705204052,157.619502503,1134.12499005,-44.8961558484,0.317292778691,0.0261673571051,-0.0927327995657,-0.115739487745,-0.0229559322366,0.0825240990451,9.000036096
1589837793810550903,157.651257773,1134.12760893,-44.9054367251,0.305709348466,0.0238698833172,-0.0844736292355,-0.112403571125,-0.0210061785634,0.075214496186,9.105382912
1589837793906019256,157.681687206,1134.12998487,-44.913844988,0.294521019125,0.0217789885031,-0.0769869938371,-0.109121017918,-0.0192243153913,0.0685829374677,9.200851456
1589837794005476602,157.711153464,1134.13216382,-44.9215473878,0.283603672411,0.0198556329437,-0.0701254036387,-0.105861430015,-0.0175786332242,0.0625001664432,9.300308736
1589837794110674041,157.740075629,1134.13418871,-44.9286988413,0.272807825898,0.0180629476741,-0.0637515788768,-0.102583866735,-0.0160387448891,0.056845509587,9.405506048
1589837794209665898,157.766915007,1134.13596578,-44.9349708489,0.262715420316,0.0164850239361,-0.0581590041712,-0.0994699096503,-0.0146780778044,0.0518803316203,9.50449792
1589837794304329713,157.792909171,1134.13759688,-44.9407253443,0.252873450958,0.0150327134587,-0.0530257469292,-0.0963878906304,-0.0134212064985,0.0473199344588,9.599161856
1589837794405489053,157.818296392,1134.13910609,-44.9460488623,0.243196592127,0.0136852919125,-0.0482750638024,-0.0933141964639,-0.0122509975343,0.0430967724121,9.70032128
1589837794504896358,157.842545289,1134.14047064,-44.9508623222,0.233892323742,0.0124637567832,-0.0439779262581,-0.0903178664447,-0.011186429483,0.0392745001614,9.799728384
1589837794604728939,157.865906004,1134.14171549,-44.9552547528,0.224871549308,0.0113464777656,-0.0400552648742,-0.0873746402562,-0.010209458951,0.0357833625054,9.89956096
1589837794705066007,157.888421928,1134.14285159,-44.9592654037,0.216122906972,0.0103242257192,-0.0364723506646,-0.0844842565011,-0.00931266825112,0.03259290588,9.999898112
1589837794806033061,157.91001606,1134.14388315,-44.9629095744,0.20768157958,0.00939374133244,-0.0332157984904,-0.0816616989772,-0.00849379025471,0.0296916088483,10.10086528
1589837794907682249,157.930744537,1134.14482073,-44.9662248078,0.199531012673,0.008545985204,-0.0302523107411,-0.0789048757457,-0.00774542020298,0.0270501607639,10.202514432
1589837795004959105,157.950660513,1134.14567374,-44.9692444101,0.191655206286,0.00777288431098,-0.0275523276679,-0.0762114977449,-0.00706091194144,0.0246425133598,10.29979136
1589837795103814242,157.969741344,1134.14644759,-44.9719874679,0.184067733229,0.00706991322787,-0.0250989654888,-0.0735891443069,-0.00643668582667,0.0224538676316,10.398646272
1589837795204952342,157.988217526,1134.14715725,-44.9745068288,0.176681069596,0.00642381748153,-0.0228451117579,-0.0710101858539,-0.00586134378515,0.0204424109062,10.499784448
1589837795308188613,158.005869904,1134.14779906,-44.9767893062,0.169586372728,0.00583820491206,-0.020802690563,-0.0685086830197,-0.0053384145645,0.0186189635187,10.6030208
1589837795408634161,158.022870413,1134.14838432,-44.9788747116,0.162718589201,0.00530304536753,-0.0189361970721,-0.0660642652797,-0.00485925339666,0.0169519952884,10.70346624
1589837795506108814,158.03903588,1134.14891116,-44.98075595,0.156155358074,0.00482029719778,-0.0172520814208,-0.0637068686912,-0.00442588322669,0.0154474073832,10.800941056
1589837795605089323,158.054686062,1134.14939425,-44.9824849859,0.149770536414,0.00437672689409,-0.0157039133302,-0.0613935122578,-0.00402667369123,0.0140638440844,10.899921408
1589837795703873331,158.069593614,1134.1498299,-44.9840480897,0.143659675333,0.0039759281348,-0.0143040553601,-0.0591605749501,-0.0036650574941,0.0128124507809,10.998705408
1589837795806101616,158.084045333,1134.15022986,-44.9854870334,0.13770830461,0.00360723469514,-0.0130151624692,-0.0569681771632,-0.00333160407263,0.011659933569,11.100933632
1589837795906543670,158.097790541,1134.15058991,-44.9867861281,0.132022086499,0.00327469417233,-0.0118513385812,-0.0548567647954,-0.00303013060655,0.0106189756429,11.201375744
1589837796003637762,158.110892012,1134.15091489,-44.9879622189,0.126578267641,0.00297399320684,-0.0107975436651,-0.0528199170975,-0.00275689309113,0.00967619669759,11.298469888
1589837796104672676,158.123588184,1134.15121319,-44.9890452443,0.121280274948,0.00269746873929,-0.00982699274011,-0.0508230690929,-0.00250506159807,0.00880768977767,11.399504896
1589837796205197143,158.135742426,1134.15148352,-44.9900300676,0.116186982618,0.00244642110971,-0.0089443199777,-0.0488895684489,-0.00227592625107,0.00801764562733,11.500029184
1589837796304026535,158.147304991,1134.15172698,-44.9909201783,0.111321645859,0.00221992805605,-0.00814642899139,-0.0470297532084,-0.00206875616444,0.00730333624211,11.598858752
1589837796405960333,158.158480805,1134.15194984,-44.9917380155,0.106600230022,0.00201224127371,-0.0074132317057,-0.0452128745503,-0.00187839049891,0.00664681462024,11.700792576
1589837796509317308,158.169524261,1134.1521583,-44.9925060035,0.101916315215,0.00181764579269,-0.00672464214511,-0.0433986234332,-0.00169965608494,0.00603012017449,11.804149504
1589837796607288122,158.17932251,1134.15233305,-44.9931525116,0.0977439652106,0.0016542406081,-0.0061449055096,-0.0417719143192,-0.00154925617567,0.00551081828694,11.902120192
1589837796704415003,158.189050499,1134.15249769,-44.9937640846,0.0935866065305,0.00150005055685,-0.00559644014445,-0.0401415096656,-0.00140707122104,0.00501944969098,11.999247104
1589837796804502209,158.198407857,1134.15264767,-44.9943236507,0.0895730144801,0.00135936302631,-0.00509456506439,-0.0385581502925,-0.00127708952194,0.0045697509295,12.0993344
