%time,field.linear.x,field.linear.y,field.linear.z,field.angular.x,field.angular.y,field.angular.z,secs_since_start
1591963231734629419,152.770459824,1127.78704262,-2.10566294952,-0.028626514487,-0.0359568311111,4.74665737357,0.0
1591963231780969333,152.763314735,1127.77628849,-2.10649070615,-0.0217215591557,-0.0331312748614,4.6290324907,0.04633984
1591963231830524612,152.753580619,1127.76005432,-2.10664961177,-0.0129423174914,-0.0276751206449,4.41871111423,0.095895296
1591963231901748640,152.745286879,1127.74744245,-2.10692290125,-6.06306287179e-05,-0.0258776766936,4.25508099401,0.16711936
1591963231944543434,152.738347766,1127.73681313,-2.10725332448,0.0124924350233,-0.025026108822,4.10666842543,0.209914112
1591963231981300689,152.73228643,1127.72737908,-2.10776807077,0.0229032625857,-0.0232082015045,3.96384644113,0.24667136
1591963232031291130,152.723958107,1127.71386902,-2.108229504,0.0362023555792,-0.0161008662474,3.72765753466,0.29666176
1591963232086589326,152.716976974,1127.70359718,-2.10871419396,0.0513843729212,-0.0136175022249,3.54637640875,0.351960064
1591963232132054531,152.711298917,1127.69506321,-2.10924003963,0.0645862486327,-0.0125680415745,3.38537270471,0.397425152
1591963232181647861,152.706376894,1127.68741494,-2.10982862317,0.0746364306024,-0.0112264475446,3.23210580645,0.447018496
1591963232245765479,152.69973461,1127.67637681,-2.11043348226,0.0838501181931,-0.00542227796139,2.98740736578,0.511136
1591963232287941880,152.694742677,1127.66846793,-2.11106983655,0.0929060006913,-0.00407735624599,2.80235077627,0.553312512
1591963232330431004,152.690687672,1127.6619596,-2.11173848968,0.0982355704626,-0.00322494893685,2.6396488408,0.5958016
1591963232396451332,152.687081139,1127.65619392,-2.11231119198,0.102880402837,-0.00173869769819,2.48222563918,0.661821952
1591963232442115199,152.68288426,1127.64837585,-2.11319112445,0.093814902237,0.00204502619555,2.23836585876,0.707485696
1591963232480434812,152.679677524,1127.64303502,-2.113880762,0.0912035779776,0.00355681457804,2.04730985413,0.745805312
1591963232536788340,152.677087246,1127.63886753,-2.11458046306,0.0866197498387,0.00468585884313,1.87674075066,0.802158848
1591963232593555902,152.674842993,1127.63547638,-2.11529904611,0.0796592159164,0.00593048117207,1.71285613911,0.858926592
1591963232636926398,152.672778404,1127.63033988,-2.11603980254,0.0617921744291,0.00833964817678,1.44689763133,0.902297088
1591963232681719721,152.671310494,1127.62741289,-2.11678979152,0.0497123265078,0.00927854463561,1.24290434457,0.947090432
1591963232731122288,152.670163548,1127.62555679,-2.11752681204,0.0380559342171,0.0101631033672,1.06026534249,0.9964928
1591963232782634295,152.669184952,1127.62274241,-2.11826435978,0.0156277898811,0.0118508131266,0.776452693862,1.048004864
1591963232845983798,152.668807631,1127.62187337,-2.11900146999,0.00111605452979,0.0122730082128,0.56170574875,1.111354368
1591963232888321940,152.668765784,1127.62189142,-2.11972324442,-0.0131397636826,0.0135707509197,0.367208700697,1.153692672
1591963232930084278,152.66889072,1127.6224913,-2.12044623684,-0.0218034874464,0.0124201567144,0.196460757287,1.195454976
1591963232980720387,152.669622652,1127.62251918,-2.1211391975,-0.0418425222282,0.0133271273763,-0.0925842660999,1.246091008
1591963233030612673,152.670153033,1127.62408673,-2.12181695002,-0.0536378996406,0.0145243281854,-0.312339497523,1.29598336
1591963233087158033,152.671073944,1127.6260668,-2.12246278032,-0.0626681834476,0.0147560842105,-0.504969325626,1.35252864
1591963233159140109,152.672203736,1127.62832826,-2.12308754851,-0.070662680451,0.0149695464199,-0.688756904425,1.42451072
1591963233184760326,152.674484338,1127.6306377,-2.12367735572,-0.0804506932459,0.0142653619716,-0.981823681987,1.450130944
1591963233229805105,152.676365373,1127.63407555,-2.12425106194,-0.0848893339446,0.0151228862503,-1.20487686979,1.49517568
1591963233280660311,152.678001885,1127.63768916,-2.12478435659,-0.0872537860649,0.0162068030579,-1.40079136539,1.546030848
1591963233331699318,152.68054615,1127.6419122,-2.12528572075,-0.0866240310121,0.0165384253434,-1.69843552706,1.597069824
1591963233392328663,152.683086131,1127.646573,-2.12576192181,-0.0832981784081,0.0173283650027,-1.921450423,1.657699328
1591963233439693987,152.685586114,1127.65119765,-2.12617442756,-0.0775834768399,0.0179373275755,-2.11352772378,1.705064704
1591963233482752845,152.688065019,1127.65562035,-2.12656345499,-0.0708962100796,0.0185473300967,-2.29318875823,1.748123392
1591963233530127903,152.691568984,1127.66074529,-2.12690581397,-0.0554612799684,0.0179822789925,-2.56765092704,1.795498496
1591963233580711510,152.694094031,1127.66610194,-2.12722650331,-0.0419750165054,0.01909574599,-2.76975045072,1.846082048
1591963233630962144,152.696561923,1127.67113564,-2.12750274749,-0.0292572262441,0.0192463295151,-2.94011434545,1.8963328
1591963233688837965,152.698983174,1127.6760228,-2.12774941249,-0.0161717189815,0.01884070196,-3.00021448195,1.954208512
1591963233744333374,152.700249983,1127.67861315,-2.12795619325,0.00393541160637,0.0183865631962,-3.10813396319,2.009703936
1591963233784036204,152.704591342,1127.68388081,-2.12810702737,0.0240126665687,0.013345350381,-3.39754586102,2.04940672
1591963233829641148,152.708092946,1127.68955617,-2.12826527894,0.0404032972634,0.0115239453269,-3.57729560138,2.09501184
1591963233892495625,152.711103755,1127.69485869,-2.12843605513,0.0545063703022,0.0103017608778,-3.71053091824,2.15786624
1591963233938212938,152.714809182,1127.700491,-2.1284910424,0.0728781327021,0.00600014369603,-3.75198291186,2.203583488
1591963233982989574,152.716752717,1127.70343923,-2.12848940797,0.0799870799119,0.00486440188616,-3.88470578766,2.248360192
1591963234047007485,152.718318029,1127.70712153,-2.12855731197,0.0835367678951,0.00477581378653,-3.98831081284,2.312378112
1591963234100480866,152.720152578,1127.71077657,-2.12856092045,0.0878052387534,0.00270107536182,-4.07181956952,2.365851392
1591963234139819635,152.723194061,1127.71549468,-2.12853775783,0.09381207477,-0.00231478663288,-4.17887308326,2.405190144
1591963234181915966,152.725861752,1127.71975703,-2.12848712156,0.0937283807842,-0.00500389656514,-4.25004338591,2.447286528
1591963234230483866,152.727802907,1127.72361221,-2.12844275076,0.0884332366998,-0.00742255939031,-4.30037255206,2.495854592
1591963234281266553,152.729844712,1127.72733402,-2.12836958436,0.0853949314713,-0.00847871036745,-4.34469239925,2.546637056
1591963234347467360,152.732483794,1127.73190216,-2.12827397904,0.0766781155282,-0.0112130562338,-4.39284267361,2.612837888
1591963234396074157,152.734942381,1127.73604444,-2.12817038313,0.0670955257078,-0.0126355109288,-4.42015704982,2.661444864
1591963234434027676,152.736750554,1127.73955117,-2.12802363061,0.0563514413803,-0.012867330312,-4.43489883548,2.6993984
1591963234481709894,152.738201844,1127.74288775,-2.1278663664,0.0457542906905,-0.0129545907571,-4.44041990103,2.747080448
1591963234531082621,152.740519645,1127.7475204,-2.12771398765,0.030098888604,-0.0146459643094,-4.42801494062,2.79645312
1591963234598475212,152.742787743,1127.75135853,-2.12755438337,0.0159876170872,-0.0154612738771,-4.40898519645,2.863845888
1591963234649823877,152.744501381,1127.75471448,-2.12739606065,0.00260168244784,-0.0153241697349,-4.38265709998,2.915194624
1591963234695526074,152.745894585,1127.7577406,-2.12722497392,-0.0102618801681,-0.0150958763178,-4.34909244873,2.960896768
1591963234732287793,152.74816387,1127.76218996,-2.12704290879,-0.0289563254462,-0.016213356033,-4.27669031375,2.997658368
1591963234783562487,152.749872456,1127.76582798,-2.12687959724,-0.0440624717094,-0.0158781123409,-4.21413703265,3.04893312
1591963234830884860,152.751276168,1127.76881017,-2.12672057816,-0.0563680224485,-0.0152329826731,-4.15217375994,3.096255488
1591963234886655759,152.752510839,1127.77165491,-2.12656771266,-0.0663655016528,-0.0146452573488,-4.08728618492,3.152026368
1591963234935944299,152.754172867,1127.77605446,-2.12641765184,-0.0777847564138,-0.0146608894996,-3.97044833667,3.201314816
1591963234987772689,152.75552978,1127.77961908,-2.12628114101,-0.0863386167735,-0.0142375752351,-3.87587723395,3.253143296
1591963235031003039,152.75725326,1127.78258982,-2.12615022894,-0.0922793265373,-0.0144283198466,-3.78726577294,3.29637376
1591963235081901622,152.758666393,1127.78549023,-2.12603253058,-0.0953414264386,-0.0138671719352,-3.69849887845,3.347272192
1591963235132050817,152.760453317,1127.79001941,-2.12593740858,-0.094701583264,-0.0133822956279,-3.54677503771,3.397421568
1591963235185217467,152.76189977,1127.79342174,-2.12585369408,-0.0936556877992,-0.0125378460278,-3.42775426113,3.45058816
1591963235238299629,152.763691074,1127.79661591,-2.12578365648,-0.0907996380669,-0.0124086235431,-3.3193202013,3.503670272
1591963235293780271,152.765682523,1127.8014083,-2.12573523726,-0.0815062662492,-0.0120371137815,-3.1457528056,3.559150848
1591963235343086136,152.767245965,1127.80506149,-2.12571372469,-0.0747183335965,-0.0110500912109,-3.01171974106,3.608456704
1591963235382433466,152.769087365,1127.808229,-2.1256719341,-0.0659787754231,-0.0105814909326,-2.89326629004,3.64780416
1591963235437868913,152.770603023,1127.81129334,-2.12567782062,-0.0567526829193,-0.00941174634258,-2.77850769183,3.703239424
1591963235492664348,152.772979538,1127.81640848,-2.12569290709,-0.0373368494671,-0.00860960966725,-2.5956809147,3.758034944
1591963235532006526,152.775289249,1127.82035776,-2.12571794259,-0.0242069811535,-0.00746110018784,-2.45794805722,3.797377024
1591963235580535113,152.777054946,1127.82370239,-2.12576631248,-0.0125122767846,-0.00549777819583,-2.33766146554,3.845905664
1591963235639247018,152.779042878,1127.82704637,-2.12582814698,-0.000773257630461,-0.00414686914217,-2.22504589641,3.904617728
1591963235692615092,152.781682044,1127.83256183,-2.12590349962,0.0201178978986,-0.00238634657926,-2.05155617951,3.957985792
1591963235732423751,152.784132386,1127.83678049,-2.12597768068,0.0321752490061,-0.000512049206807,-1.92340152256,3.997794304
1591963235781497920,152.786494303,1127.84079902,-2.12606835823,0.0421226455881,0.00142353367346,-1.81376085596,4.04686848
1591963235831086733,152.789866143,1127.84694794,-2.12617771754,0.0584847274012,0.00355240387142,-1.65466727523,4.096457472
1591963235881842752,152.792733521,1127.85162387,-2.12629540141,0.0658175800716,0.00633901958505,-1.5389376998,4.147213312
1591963235942818769,152.795315611,1127.8559698,-2.12641890469,0.07052912117,0.00905000734953,-1.44176983456,4.20818944
1591963235996759273,152.797735199,1127.86002095,-2.12655997177,0.0736546897035,0.0115799591251,-1.35356481869,4.26212992
1591963236032482690,152.799998125,1127.86410823,-2.12664139224,0.0741834484089,0.0133999424285,-1.27223694918,4.29785344
1591963236080682846,152.803263099,1127.87069399,-2.12675626273,0.0768489309053,0.0155038067015,-1.14913421492,4.346053376
1591963236131092936,152.806027376,1127.8760787,-2.12688699675,0.0741990795595,0.0181629911982,-1.05908007326,4.396463616
1591963236180973944,152.808499856,1127.88072479,-2.12700561324,0.0689881297272,0.0206573057264,-0.9836202687,4.446344448
1591963236230530630,152.811343459,1127.88765364,-2.12712042677,0.0611819890654,0.0241016169409,-0.877359450717,4.495901184
1591963236298698241,152.813943511,1127.89348353,-2.12734718229,0.051418238575,0.0281827126037,-0.800256994969,4.564068864
1591963236348015690,152.816174237,1127.89818555,-2.12724444461,0.0385298325516,0.0287175419379,-0.740815398725,4.61338624
1591963236385669900,152.817903546,1127.90281633,-2.12740987646,0.0272932623128,0.0320941927829,-0.686171450676,4.651040512
1591963236431600534,152.82077314,1127.90949116,-2.1273996472,0.0117133205976,0.0328636779635,-0.612150582381,4.696971264
1591963236485366317,152.822789509,1127.91504554,-2.12749022501,-0.00360130082158,0.0353987692811,-0.55999308103,4.750736896
1591963236531255668,152.824276226,1127.9197713,-2.12754176585,-0.0178617609279,0.037173420474,-0.518923973004,4.796626176
1591963236579483956,152.826497913,1127.92644022,-2.12756163929,-0.0354068869904,0.0373268763443,-0.466969529122,4.844854528
1591963236641893320,152.828066824,1127.93179301,-2.12757696218,-0.0503835689147,0.037837626751,-0.431927396485,4.907264
1591963236693503000,152.82872839,1127.93623467,-2.12756581622,-0.0631528024552,0.0384930733389,-0.420026213585,4.9588736
1591963236732222520,152.829406278,1127.94216535,-2.1275092166,-0.0779064090616,0.0381798930518,-0.37867575446,4.997593088
1591963236781261320,152.830105084,1127.94689299,-2.12744271081,-0.0895978061627,0.0375067215354,-0.354519414384,5.046631936
1591963236834784159,152.829767105,1127.95077952,-2.12734981912,-0.0981976538383,0.03795056164,-0.338471469942,5.10015488
1591963236883481796,152.829376333,1127.95399253,-2.12722640279,-0.104571675699,0.0375120611168,-0.326971920526,5.14885248
1591963236931062480,152.828427606,1127.95826733,-2.12707273006,-0.110002487715,0.0373649211857,-0.315555039975,5.196433152
1591963236982282632,152.827164387,1127.96149002,-2.12687830362,-0.113420056953,0.036669545552,-0.309396959681,5.247653376
1591963237039540330,152.825729674,1127.96391431,-2.126661092,-0.114883869868,0.0355731129652,-0.306085360448,5.304910848
1591963237095045639,152.823595261,1127.96594935,-2.12652392545,-0.117967605001,0.0354133493931,-0.305216812223,5.360416256
1591963237148370459,152.820694243,1127.96815275,-2.1261632353,-0.111632529372,0.0334702557174,-0.305280479714,5.413741056
1591963237181386229,152.817440377,1127.96953787,-2.12569821527,-0.103168416298,0.0309471738575,-0.307347349305,5.446756864
1591963237243227296,152.814152363,1127.97055357,-2.12545910567,-0.102170634758,0.028483898569,-0.308493528192,5.508598016
1591963237292028078,152.810719902,1127.97085918,-2.12504424625,-0.095476940838,0.0258420673834,-0.310825569835,5.557398784
1591963237330107984,152.804872462,1127.97077401,-2.12466751912,-0.0869882899563,0.0244610385653,-0.31952674443,5.595478528
1591963237398504028,152.799232174,1127.97026143,-2.12426476761,-0.0837570693763,0.0226389849433,-0.322830492328,5.66387456
1591963237443205543,152.796085896,1127.96976393,-2.12377721409,-0.0726016375312,0.0160740307184,-0.326637589701,5.708576256
1591963237481986210,152.789461769,1127.96809343,-2.12332154593,-0.0645443643889,0.0161250531943,-0.333553756228,5.747356928
1591963237529666672,152.780344067,1127.96529458,-2.12281027618,-0.0521630476514,0.0158773325055,-0.34066148165,5.795037184
1591963237580336112,152.771991058,1127.96235391,-2.12224788171,-0.0419138148794,0.0128565283234,-0.34503921087,5.845706752
1591963237633269222,152.764088531,1127.95933928,-2.12167113202,-0.0325118550382,0.00933401374758,-0.347965452562,5.898639872
1591963237704625430,152.759638258,1127.95747563,-2.12107591125,-0.027192530579,0.00359270817644,-0.349012860977,5.969996032
1591963237751461226,152.754040306,1127.95465884,-2.12054104751,-0.0213410551775,0.00184016213134,-0.350263445773,6.016831744
1591963237784929626,152.744087331,1127.94965655,-2.11996872984,-0.00729599398565,0.00160969508026,-0.350514891841,6.05030016
1591963237831097595,152.730650032,1127.9424978,-2.11934942737,-0.000544760215394,0.00326886015388,-0.350005303703,6.096468224
1591963237900904019,152.723100482,1127.93837135,-2.1186987429,0.005929895862,-0.00380457953625,-0.348882929277,6.16627456
1591963237953888522,152.714774874,1127.93365917,-2.11804768258,0.0108133534297,-0.00734831360852,-0.346872678268,6.219259136
1591963237983322404,152.701817159,1127.92605129,-2.11747483301,0.013248711184,-0.00757089421182,-0.342712561023,6.248692992
1591963238032919928,152.689879192,1127.91916067,-2.11685384084,0.0161082464823,-0.0118081103426,-0.339895709727,6.298290432
1591963238106688651,152.678280646,1127.91208367,-2.11613334295,0.0192152446387,-0.0181012384988,-0.338166375954,6.372059392
1591963238148776914,152.667787874,1127.90573056,-2.1156683754,0.0167875777316,-0.0208558305779,-0.337929385658,6.414147584
1591963238184768268,152.651133401,1127.89590379,-2.1150089385,0.0101500067628,-0.0221203188965,-0.343214842055,6.45013888
1591963238231561262,152.637090005,1127.88750937,-2.11452083158,0.00499890959833,-0.0262536248875,-0.350512957804,6.49693184
1591963238307242209,152.623954052,1127.87958806,-2.11389558819,0.00229953657793,-0.0323202087147,-0.36070042641,6.572612864
1591963238352371824,152.605767295,1127.86847966,-2.11326400702,-0.00580564385486,-0.0327737717975,-0.384239736913,6.617742336
1591963238395625505,152.589770176,1127.85896019,-2.11255764043,-0.00740921021076,-0.0390282702713,-0.405261384117,6.660996096
1591963238431992597,152.575668153,1127.85119041,-2.11235551866,-0.00977780960149,-0.0397017987788,-0.425266370098,6.6973632
1591963238481722632,152.561922702,1127.84343215,-2.1117883312,-0.0113500465773,-0.0436961382963,-0.447782108875,6.747093248
1591963238530767440,152.54251204,1127.83220708,-2.1112848285,-0.0190628968136,-0.0406755411013,-0.489847818719,6.796137984
1591963238603438090,152.526255908,1127.82294254,-2.1107883402,-0.0215687161589,-0.0441165832336,-0.525547466668,6.868808704
1591963238649533912,152.511297729,1127.81477963,-2.11034822933,-0.0237165497724,-0.0472968338624,-0.561530639953,6.914904576
1591963238689711283,152.497155025,1127.80705683,-2.10998237615,-0.0269747584239,-0.0492269059989,-0.600808634961,6.955081984
1591963238730597074,152.47776426,1127.79658694,-2.1097066523,-0.0353930373724,-0.0442216082109,-0.678253986591,6.995967744
1591963238797285751,152.4610433,1127.7879995,-2.10935445546,-0.035847343095,-0.0462786513295,-0.744152513506,7.062656256
1591963238837014532,152.446453867,1127.78067794,-2.10906399574,-0.0322621711817,-0.0496059428047,-0.807901032906,7.102385152
1591963238881637007,152.432678889,1127.77411007,-2.10890693899,-0.0261323639863,-0.0509390618922,-0.871734845605,7.147007744
1591963238940305377,152.413414803,1127.76480576,-2.10874116444,-0.0138458433128,-0.0459425209917,-0.977603665076,7.205676032
1591963238995593845,152.397460798,1127.75752491,-2.1086032626,0.000616094563266,-0.0479488097685,-1.05782669297,7.260964352
1591963239046785525,152.383399291,1127.75148342,-2.10854097706,0.0152345451349,-0.0503824206315,-1.12758402932,7.31215616
1591963239097545810,152.370435072,1127.74585278,-2.10855098577,0.0289692085476,-0.0515950435934,-1.19276253074,7.362916352
1591963239138159036,152.352841026,1127.73807373,-2.10862969308,0.0483070782236,-0.0454720538943,-1.29393752121,7.403529728
1591963239207057938,152.338438455,1127.73234802,-2.10871950055,0.0655655931572,-0.0458917577561,-1.36999606365,7.472428544
1591963239233784481,152.325837492,1127.72740401,-2.10886447064,0.0803493628932,-0.046706075325,-1.43621637599,7.4991552
1591963239285915570,152.314292331,1127.72332936,-2.10908667924,0.093906189384,-0.0463777796224,-1.49794385594,7.551286272
1591963239339579411,152.299085856,1127.71781264,-2.10935560647,0.113924116863,-0.0397557800714,-1.59184792479,7.604950016
1591963239384036732,152.287117996,1127.71378558,-2.10967055667,0.129611154935,-0.0397645347534,-1.65982329625,7.649407232
1591963239440309735,152.276815759,1127.71063904,-2.10995948246,0.144654885516,-0.0408034402106,-1.71613858329,7.705680384
1591963239505087694,152.267770997,1127.70824535,-2.1105060602,0.151915110192,-0.0400697981212,-1.76453571788,7.770458368
1591963239530589204,152.256021465,1127.70545246,-2.11101996806,0.161223903853,-0.0342021518929,-1.83216965746,7.795959808
1591963239580269568,152.246420498,1127.70371334,-2.1115248848,0.16609145969,-0.0330534938925,-1.87983036039,7.845640192
1591963239642235962,152.238571038,1127.70269069,-2.11208750231,0.166710654693,-0.0328081145287,-1.91832057483,7.907606528
1591963239689541129,152.229066522,1127.70200952,-2.11273366871,0.162431257362,-0.0276333047671,-1.96893530687,7.954911744
