%time,field.throttle_bow,field.position_bow,field.lin_act_bow,secs_since_start
1590675564688087562,-36.9983017445,90,2,0.0
1590675564889145797,-17.977848649,90,2,0.201058304
1590675565087213079,-2.24474295974,90,2,0.399125504
1590675565290065805,14.9269044399,90,2,0.601978368
1590675565486341784,30.4038137197,90,2,0.798254336
1590675565685927131,49.2970168591,90,2,0.997839616
1590675565888240934,68.2850241661,90,2,1.200153344
1590675566086768160,85.6188118458,90,2,1.398680576
1590675566287209099,98.093354702,90,2,1.599121664
1590675566487057529,100.0,90,2,1.798969856
1590675566686401128,100.0,90,2,1.998313472
1590675566884048745,96.0483014584,90,2,2.195961088
1590675567091458619,85.7557415962,90,2,2.403371008
1590675567286252736,69.3052053452,90,2,2.598165248
1590675567486797301,53.479295969,90,2,2.79870976
1590675567686557451,36.911791563,90,2,2.998469888
1590675567885697419,17.7251636982,90,2,3.197609984
1590675568085551830,-3.07368841022,90,2,3.39746432
1590675568286634558,-22.1060484648,90,2,3.598546944
1590675568487045224,-34.1646164656,90,2,3.798957568
1590675568683536732,-41.9605731964,90,2,3.995449088
1590675568887329409,-42.6424860954,90,2,4.199241984
1590675569089256930,-41.5457218885,90,2,4.401169408
1590675569293362460,-33.492270112,90,2,4.60527488
1590675569484859897,-20.1354324818,90,2,4.796772352
1590675569685301467,-8.63311439753,90,2,4.997213952
1590675569884885174,2.1843302995,90,2,5.196797696
1590675570088198764,12.0996661484,90,2,5.400111104
1590675570286526198,19.6724057198,90,2,5.598438656
1590675570485693446,26.0815471411,90,2,5.797605888
1590675570688865792,31.1764508486,90,2,6.00077824
1590675570890994593,34.6528917551,90,2,6.202907136
1590675571090920414,36.4256948233,90,2,6.402832896
1590675571288229071,38.0817502737,90,2,6.600141568
1590675571487625852,39.766779542,90,2,6.799538176
1590675571686235305,41.7436718941,90,2,6.99814784
1590675571886278226,42.3906952143,90,2,7.198190592
1590675572086588203,39.7495687008,90,2,7.398500608
1590675572285532815,37.0328694582,90,2,7.597445376
1590675572484812314,34.152123332,90,2,7.796724736
1590675572698196199,28.2802194357,90,2,8.010108672
1590675572887349298,20.9757566452,90,2,8.199261696
1590675573089196155,14.7117286921,90,2,8.40110848
1590675573288517550,-3.22687476873,90,2,8.60043008
1590675573487002325,-25.9680122137,90,2,8.798914816
1590675573686675156,-42.5584077835,90,2,8.998587648
1590675573886361240,-60.8273565769,90,2,9.198273792
1590675574090731833,-76.0710299015,90,2,9.402644224
1590675574287640993,-85.516923666,90,2,9.599553536
1590675574486577276,-92.2585904598,90,2,9.7984896
1590675574689099002,-93.5699462891,90,2,10.001011456
1590675574889036486,-90.4723703861,90,2,10.200948992
1590675575085112187,-81.7770957947,90,2,10.397024512
1590675575286398943,-65.1752412319,90,2,10.598311424
1590675575490151051,-40.3231441975,90,2,10.802063616
1590675575684520088,-9.44202914834,90,2,10.99643264
1590675575885146844,13.4740412235,90,2,11.197059328
1590675576089298367,38.8121932745,90,2,11.40121088
1590675576288066549,56.6272139549,90,2,11.599979008
1590675576488546007,69.6046948433,90,2,11.800458496
1590675576694137670,78.0781567097,90,2,12.006050048
1590675576891211766,83.854496479,90,2,12.203124224
1590675577096540105,86.3527059555,90,2,12.408452608
1590675577285844088,83.7927043438,90,2,12.597756416
1590675577485698780,76.7799973488,90,2,12.797611264
1590675577691429820,64.4231319427,90,2,13.003342336
1590675577886965988,45.6808626652,90,2,13.198878464
1590675578084571591,27.5707870722,90,2,13.396484096
1590675578284295647,2.56758332253,90,2,13.596208128
1590675578490008054,-25.4779458046,90,2,13.801920512
1590675578687480547,-43.6030864716,90,2,13.999393024
1590675578889638347,-59.4036996365,90,2,14.201550848
1590675579086889875,-70.29479146,90,2,14.398802432
1590675579289028534,-75.1769483089,90,2,14.600941056
1590675579489217828,-74.067646265,90,2,14.80113024
1590675579690963915,-66.2729978561,90,2,15.002876416
1590675579891652312,-54.2976737022,90,2,15.2035648
1590675580089858874,-30.3317606449,90,2,15.401771264
1590675580286859788,-1.982441172,90,2,15.598772224
1590675580488046580,26.8240183592,90,2,15.79995904
1590675580688917487,44.5961117744,90,2,16.000829952
1590675580888378843,60.4149401188,90,2,16.200291328
1590675581084186284,66.1248445511,90,2,16.396098816
1590675581289304617,69.0546274185,90,2,16.601217024
1590675581484692996,71.8530118465,90,2,16.79660544
1590675581685057159,72.2555279732,90,2,16.996969728
1590675581886531931,69.5738255978,90,2,17.198444288
1590675582095455962,63.2560491562,90,2,17.407368448
1590675582288441342,53.1429886818,90,2,17.600353792
1590675582490024270,42.7816987038,90,2,17.80193664
1590675582688497164,26.2566536665,90,2,18.0004096
1590675582889259788,3.20896245539,90,2,18.201172224
1590675583089025010,-12.9948496819,90,2,18.400937472
1590675583291028442,-19.7789371014,90,2,18.602940928
1590675583488685377,-18.3462649584,90,2,18.80059776
1590675583685734480,-17.2635138035,90,2,18.997646848
1590675583886801515,-13.2313281298,90,2,19.198713856
1590675584087367360,-5.34189678729,90,2,19.399279872
1590675584291112379,3.1648747623,90,2,19.603024896
1590675584493696630,8.62296894193,90,2,19.80560896
1590675584685274583,13.0633682013,90,2,19.997187072
1590675584888945711,17.9102897644,90,2,20.200858112
1590675585086040184,23.8769590855,90,2,20.397952512
1590675585287674399,32.0213377476,90,2,20.599586816
1590675585486766867,42.3465549946,90,2,20.798679296
1590675585689520109,48.2383877039,90,2,21.001432576
1590675585890418444,45.7911789417,90,2,21.20233088
1590675586089244130,47.8935569525,90,2,21.401156608
1590675586292086947,38.4368211031,90,2,21.603999488
1590675586487996448,9.11609977484,90,2,21.799908864
1590675586684508644,-28.7926971912,90,2,21.99642112
1590675586887255613,-58.5783421993,90,2,22.199168
1590675587088723086,-81.0530185699,90,2,22.400635648
1590675587287012324,-100.0,90,2,22.5989248
1590675587486088034,-100.0,90,2,22.798000384
1590675587686162708,-100.0,90,2,22.998075136
1590675587887731536,-100.0,90,2,23.199643904
1590675588086386458,-100.0,90,2,23.39829888
1590675588289842594,-100.0,90,2,23.601755136
1590675588487423520,-100.0,90,2,23.799335936
1590675588686404361,-100.0,90,2,23.9983168
1590675588888176604,-81.4341366291,90,2,24.200089088
1590675589091940568,-50.8364260197,90,2,24.403853056
1590675589291333461,-22.1937388182,90,2,24.603245824
1590675589494856477,13.6140823364,90,2,24.806768896
1590675589693872015,48.7133771181,90,2,25.005784576
1590675589888053554,89.9805724621,90,2,25.199965952
1590675590086270231,100.0,90,2,25.398182656
1590675590293282131,100.0,90,2,25.605194496
1590675590490085094,100.0,90,2,25.801997568
1590675590686450606,100.0,90,2,25.998363136
1590675590886771311,100.0,90,2,26.198683648
1590675591086057283,100.0,90,2,26.397969664
1590675591285792986,100.0,90,2,26.597705472
1590675591486660530,100.0,90,2,26.798573056
1590675591687076020,100.0,90,2,26.998988544
1590675591892689941,100.0,90,2,27.204602368
1590675592089129078,100.0,90,2,27.401041408
1590675592288697012,76.4182567596,90,2,27.600609536
1590675592486248451,26.4866441488,90,2,27.798160896
1590675592684455900,-33.4716647863,90,2,27.996368384
1590675592891893922,-81.7361712456,90,2,28.203806464
1590675593086731039,-100.0,90,2,28.398643456
1590675593287514730,-100.0,90,2,28.599427072
1590675593490828257,-100.0,90,2,28.802740736
1590675593687914293,-100.0,90,2,28.999826688
1590675593886770988,-100.0,90,2,29.198683392
1590675594091118691,-100.0,90,2,29.40303104
1590675594289656192,-100.0,90,2,29.601568768
1590675594488639497,-100.0,90,2,29.800551936
1590675594690180855,-100.0,90,2,30.002093312
1590675594883760432,-82.6725482941,90,2,30.195672832
1590675595091770920,-50.4020214081,90,2,30.403683328
1590675595287549091,-7.56344795227,90,2,30.599461632
1590675595493471961,23.4252244234,90,2,30.805384448
1590675595684006762,52.2961318493,90,2,30.995919104
1590675595889448987,77.9528677464,90,2,31.201361408
1590675596090557500,100.0,90,2,31.402469888
1590675596289531798,100.0,90,2,31.601444352
1590675596485730236,100.0,90,2,31.797642752
1590675596685943379,100.0,90,2,31.997855744
1590675596887025360,100.0,90,2,32.198937856
1590675597086743512,100.0,90,2,32.398656
1590675597286077424,100.0,90,2,32.597989888
1590675597485733777,100.0,90,2,32.797646336
1590675597684788107,80.858540535,90,2,32.996700672
1590675597884856952,62.2557878494,90,2,33.19676928
1590675598092875946,48.8327771425,90,2,33.40478848
1590675598292773584,35.4030162096,90,2,33.60468608
1590675598490739536,25.8480191231,90,2,33.802651904
1590675598690941027,20.8929419518,90,2,34.002853376
1590675598887527219,21.3337123394,90,2,34.199439616
1590675599092254199,26.5049308538,90,2,34.404166656
1590675599286595158,32.891780138,90,2,34.59850752
1590675599489512141,40.8264011145,90,2,34.80142464
1590675599688309239,49.8462498188,90,2,35.000221696
1590675599884960675,57.4831962585,90,2,35.196873216
1590675600089300974,63.8563811779,90,2,35.40121344
1590675600289111258,67.4394786358,90,2,35.601023744
1590675600490387406,67.7912056446,90,2,35.802299904
1590675600690492562,64.1031444073,90,2,36.00240512
1590675600885368075,57.1098327637,90,2,36.197280512
1590675601086820307,46.7962861061,90,2,36.3987328
1590675601287559716,32.4549883604,90,2,36.599472128
1590675601488503763,16.2371754646,90,2,36.800416256
1590675601690046969,-0.117737706751,90,2,37.001959424
1590675601887258771,-15.0116086006,90,2,37.199171328
1590675602087526957,-26.6172856092,90,2,37.39943936
1590675602289999403,-34.8424971104,90,2,37.601911808
1590675602489365809,-36.9630903006,90,2,37.801278208
1590675602689146399,-41.6462361813,90,2,38.001058816
1590675602888578358,-37.2700124979,90,2,38.200490752
1590675603088762398,-27.0162135363,90,2,38.400674816
1590675603286496394,-8.46702456474,90,2,38.59840896
1590675603484930390,16.1259114742,90,2,38.796842752
1590675603688031794,34.5876276493,90,2,38.999944192
1590675603888104738,50.3073334694,90,2,39.200017152
1590675604085631874,65.626013279,90,2,39.397544448
1590675604290454803,76.3273835182,90,2,39.602367232
1590675604491502636,83.5290968418,90,2,39.80341504
1590675604692385739,89.1677081585,90,2,40.00429824
1590675604893119614,90.1026904583,90,2,40.205031936
1590675605087031206,89.1952633858,90,2,40.398943744
1590675605291873571,85.3197515011,90,2,40.603785984
1590675605492100716,82.8118979931,90,2,40.804013056
1590675605685066945,78.1634807587,90,2,40.996979456
1590675605884862572,72.3208189011,90,2,41.196774912
1590675606086057518,70.2978670597,90,2,41.39796992
1590675606283766349,69.1585302353,90,2,41.59567872
1590675606484666461,69.5674538612,90,2,41.796578816
1590675606686598200,70.2850997448,90,2,41.998510592
1590675606886524416,71.9184875488,90,2,42.198436864
1590675607093142083,73.5086858273,90,2,42.405054464
1590675607287954117,75.5764603615,90,2,42.599866624
1590675607488201237,76.981395483,90,2,42.800113664
1590675607688632163,76.1709570885,90,2,43.000544512
1590675607884846528,72.675538063,90,2,43.19675904
1590675608091474146,66.7716264725,90,2,43.403386624
1590675608290193300,57.2181284428,90,2,43.602105856
1590675608492567867,45.4934448004,90,2,43.804480256
1590675608686839706,32.254165411,90,2,43.998752256
1590675608889112054,8.56973826885,90,2,44.201024512
1590675609086029612,-22.0369696617,90,2,44.397942016
1590675609288389343,-44.2495346069,90,2,44.600301824
1590675609492620785,-66.9126927853,90,2,44.804533248
1590675609683963112,-83.9130043983,90,2,44.995875584
1590675609889461719,-94.671189785,90,2,45.201374208
1590675610090868865,-100.0,90,2,45.40278144
1590675610286343681,-100.0,90,2,45.598256128
1590675610487961371,-100.0,90,2,45.799873792
1590675610689359071,-87.3039722443,90,2,46.001271552
1590675610884643338,-63.707280159,90,2,46.196555776
1590675611089719468,-30.1935881376,90,2,46.401632
1590675611287409824,-3.36575098336,90,2,46.599322368
1590675611487115124,27.9733479023,90,2,46.799027456
1590675611685886895,52.2916913033,90,2,46.997799424
1590675611887041467,70.7801222801,90,2,47.198953984
1590675612086002646,84.6601784229,90,2,47.397915136
1590675612285944830,98.1899559498,90,2,47.59785728
1590675612492371889,100.0,90,2,47.804284416
1590675612688812591,100.0,90,2,48.000724992
1590675612891508543,100.0,90,2,48.203420928
1590675613095364412,100.0,90,2,48.4072768
1590675613287275594,100.0,90,2,48.599187968
1590675613489567340,100.0,90,2,48.80147968
1590675613689923804,100.0,90,2,49.001836288
1590675613889508956,100.0,90,2,49.201421312
1590675614089389296,97.8893876076,90,2,49.40130176
1590675614290269911,88.7911081314,90,2,49.6021824
1590675614487608960,80.7862401009,90,2,49.79952128
1590675614689172585,73.5487759113,90,2,50.001084928
1590675614889679945,66.871958971,90,2,50.20159232
1590675615087817478,60.7426226139,90,2,50.39972992
1590675615287839739,52.531260252,90,2,50.599752192
1590675615490458094,42.9422080517,90,2,50.80237056
1590675615689575140,28.789126873,90,2,51.001487616
1590675615883874161,9.62896347046,90,2,51.195786496
1590675616084571065,-11.0797472298,90,2,51.396483584
1590675616285332667,-28.7388503551,90,2,51.597245184
1590675616486937959,-45.6489831209,90,2,51.798850304
1590675616688700930,-64.3791019917,90,2,52.000613376
1590675616885814854,-79.5166730881,90,2,52.197727232
1590675617084402283,-92.7993953228,90,2,52.396314624
1590675617288189898,-100.0,90,2,52.6001024
1590675617487791452,-100.0,90,2,52.799703808
1590675617687205587,-100.0,90,2,52.99911808
1590675617887845376,-100.0,90,2,53.199757824
1590675618087180574,-92.837870121,90,2,53.399092992
1590675618286771880,-77.2837817669,90,2,53.598684416
1590675618488652619,-59.4126999378,90,2,53.800564992
1590675618689502189,-30.8172285557,90,2,54.001414656
1590675618884198168,3.49725075066,90,2,54.196110592
1590675619088356664,28.6506354809,90,2,54.400269056
1590675619287701747,62.0996654034,90,2,54.599614208
1590675619489972490,80.2989900112,90,2,54.801884928
1590675619687709296,97.0417678356,90,2,54.999621632
1590675619888465264,100.0,90,2,55.2003776
1590675620086645285,100.0,90,2,55.398557696
1590675620288657403,100.0,90,2,55.600569856
1590675620487046774,100.0,90,2,55.798959104
1590675620694400160,100.0,90,2,56.006312704
1590675620888849779,100.0,90,2,56.200762112
1590675621088428512,100.0,90,2,56.400340992
1590675621286970728,100.0,90,2,56.598883072
1590675621491281907,100.0,90,2,56.803194368
1590675621688089203,100.0,90,2,57.000001536
1590675621884752256,98.131608963,90,2,57.196664832
1590675622085896047,89.1713798046,90,2,57.397808384
1590675622285990894,78.1404554844,90,2,57.59790336
1590675622494855479,67.2960758209,90,2,57.806767872
1590675622687122311,55.2897036076,90,2,57.99903488
1590675622888499840,42.2545850277,90,2,58.20041216
1590675623084500101,27.3833960295,90,2,58.396412672
1590675623285979845,14.8227572441,90,2,58.597892352
1590675623487153434,-2.81255561858,90,2,58.799065856
1590675623688979715,-21.5511322021,90,2,59.00089216
1590675623884181744,-42.0702219009,90,2,59.196094208
1590675624086502800,-64.5047128201,90,2,59.39841536
1590675624288180978,-83.9683175087,90,2,59.60009344
