%time,field.linear.x,field.linear.y,field.linear.z,field.angular.x,field.angular.y,field.angular.z,secs_since_start
1590675725211709206,152.345022621,1128.34624267,-2.1181564303,-0.0572929698471,0.00628808597199,0.665690965256,0.0
1590675725257104267,152.342887972,1128.33897957,-2.11720325619,-0.0535515777696,0.00427613961342,0.643778335798,0.0453952
1590675725305723536,152.341159828,1128.33074701,-2.11618141185,-0.0525241122686,0.00233414765338,0.621706445303,0.094014464
1590675725356329528,152.339187866,1128.3218629,-2.11520741054,-0.0525027304065,0.00140075769783,0.597705590272,0.144620288
1590675725409068559,152.33707498,1128.31216995,-2.11425215408,-0.0527565913962,0.000684080476351,0.570812615913,0.19735936
1590675725484961017,152.333303941,1128.29665147,-2.11330912341,-0.0568079350386,0.00128945410693,0.518830485541,0.27325184
1590675725522971197,152.330198494,1128.28281284,-2.11239091991,-0.053748323675,0.000137431963166,0.475617192722,0.311261952
1590675725578320121,152.32747635,1128.26917682,-2.11149082066,-0.0495195758699,-0.00125724032989,0.43386783071,0.366610944
1590675725606280560,152.324970563,1128.25598005,-2.11063969328,-0.0441585751195,-0.00252139729395,0.390923180594,0.394571264
1590675725666655515,152.321010125,1128.23572471,-2.10980538877,-0.0417176882177,-0.00238727146195,0.314860714649,0.454946304
1590675725707196968,152.317820471,1128.21785973,-2.1089855423,-0.0323250407441,-0.00386501298964,0.25394970481,0.495487744
1590675725755448806,152.314553576,1128.20137004,-2.10823112673,-0.0217447751977,-0.00486413863593,0.197355311648,0.543739648
1590675725805459937,152.310701815,1128.17754693,-2.10746731812,-0.013283420231,-0.00593986880906,0.103580115958,0.593750784
1590675725868331240,152.307594683,1128.15695858,-2.10673827488,0.000432476403618,-0.00775402124197,0.0297837747963,0.65662208
1590675725932756378,152.304394346,1128.13817268,-2.10606680974,0.0138337829457,-0.00873925881442,-0.0378927061922,0.721047296
1590675725958089718,152.301684033,1128.12026786,-2.10548835389,0.0251165492623,-0.00997862643685,-0.104585860915,0.746380544
1590675726006366740,152.297652911,1128.09383006,-2.10492647679,0.0325050879625,-0.0100296737405,-0.217520266557,0.794657536
1590675726054688165,152.294457127,1128.0713348,-2.10437111899,0.0463907009555,-0.0115228128081,-0.305985465241,0.842979072
1590675726104861958,152.291754264,1128.0508583,-2.10390885782,0.0587897518179,-0.0129061759144,-0.386011532744,0.893152768
1590675726166551240,152.289321037,1128.03142945,-2.10346036825,0.069612361512,-0.0140061381631,-0.464164217435,0.954842112
1590675726214090686,152.285972715,1128.00307329,-2.10299521857,0.0745378490336,-0.0142999540146,-0.592753386168,1.002381568
1590675726263205802,152.28323299,1127.97953164,-2.10283859123,0.0826217125054,-0.0149396142004,-0.690317193668,1.051496704
1590675726311180666,152.28077727,1127.95829279,-2.10256583766,0.092114900552,-0.0157180487795,-0.778078309375,1.09947136
1590675726360481085,152.277442933,1127.92880621,-2.10235487405,0.0914590548517,-0.0155083915302,-0.913697478198,1.14877184
1590675726409518038,152.274678481,1127.9044459,-2.10221302378,0.0979848731984,-0.0160418666571,-1.0161609623,1.197808896
1590675726461696503,152.272765365,1127.88307899,-2.10213802917,0.103205718234,-0.017055910054,-1.10610971938,1.249987328
1590675726511775141,152.270801267,1127.86307374,-2.1020922523,0.105312692248,-0.0171794313287,-1.19154951584,1.300066048
1590675726566355385,152.268290392,1127.83523886,-2.10217771385,0.0929325790553,-0.0165787249219,-1.32676207701,1.354646272
1590675726605779813,152.266523583,1127.81212017,-2.10227166042,0.0907144958222,-0.0168980107264,-1.42933329471,1.394070528
1590675726671558424,152.26517838,1127.79178333,-2.10242721208,0.0886627675485,-0.0170816822224,-1.51932522124,1.459849216
1590675726719647158,152.263539063,1127.77319604,-2.10263448077,0.0848536176206,-0.0163884182707,-1.6045267335,1.507938048
1590675726757432449,152.262260773,1127.7471434,-2.10294269657,0.0661198336601,-0.0163035963767,-1.73972987418,1.545723392
1590675726808261707,152.261193124,1127.72581559,-2.10328035336,0.0602333044176,-0.0159193422479,-1.84250086637,1.596552448
1590675726866101719,152.260234958,1127.70722216,-2.10365968335,0.0562607562899,-0.0153631434755,-1.93310442701,1.654392576
1590675726909096849,152.259330714,1127.68256978,-2.10411027141,0.0393861078949,-0.0148146613039,-2.07200841187,1.697387776
1590675726955823185,152.258995509,1127.66281238,-2.10462775662,0.0346939230297,-0.0145419544249,-2.17688547404,1.74411392
1590675727006658109,152.258971728,1127.64607826,-2.10518820002,0.03209202519,-0.0140622159881,-2.26901210551,1.794948864
1590675727057782676,152.259113141,1127.63094445,-2.10576831434,0.0288614228047,-0.013445393403,-2.35657800855,1.8460736
1590675727109026149,152.259863247,1127.61008309,-2.10640590491,0.0156622779523,-0.0133750197257,-2.49590994896,1.897316864
1590675727157212542,152.260439572,1127.59359377,-2.10709562448,0.0138184887722,-0.0122394581183,-2.60138242229,1.945503232
1590675727207931274,152.261425223,1127.57986343,-2.10782925878,0.0142946748675,-0.0115667570044,-2.69372117224,1.996222208
1590675727257091833,152.262625986,1127.56165844,-2.10859370584,0.00807082534702,-0.0109218713304,-2.83344029827,2.045382656
1590675727308443879,152.263954392,1127.54780554,-2.10939824341,0.0109913225536,-0.00995413521817,-2.93774683858,2.09673472
1590675727365767391,152.265902261,1127.53621031,-2.11010712237,0.0153043587368,-0.00941139434943,-3.02942264385,2.15405824
1590675727416805948,152.26759592,1127.52645894,-2.11101949897,0.0183728614924,-0.00826043231006,-3.06193906179,2.205096704
1590675727464374070,152.270150074,1127.51308112,-2.11201906438,0.0170577728082,-0.00835087001182,-3.12279508315,2.252664832
1590675727506464937,152.272727018,1127.50264459,-2.11290372633,0.0217485875782,-0.00747041619089,-3.29671464705,2.29475584
1590675727555627193,152.275344022,1127.49480907,-2.11376583466,0.0277506610866,-0.00630603958082,-3.41160901698,2.34391808
1590675727605449213,152.277930566,1127.4883863,-2.11465808044,0.0321054148092,-0.00523412752023,-3.50301682088,2.393740032
1590675727664567681,152.281574081,1127.47989002,-2.11553246334,0.0342959798603,-0.00527312650183,-3.53692514862,2.452858624
1590675727717461867,152.285157225,1127.47357645,-2.11649321292,0.0358537094369,-0.00514776455619,-3.64441509905,2.505752576
1590675727767250859,152.288327114,1127.46891685,-2.11738196846,0.0412284833603,-0.003273054589,-3.73225017394,2.55554176
1590675727807931206,152.291614939,1127.46571299,-2.11831940723,0.0436936805579,-0.00269558806855,-3.85617110746,2.596221952
1590675727870367654,152.293479302,1127.46451204,-2.11922263395,0.0473965315563,0.000232850517231,-3.90211165319,2.65865856
1590675727927265744,152.297158964,1127.46215888,-2.12011124357,0.0456563414902,-0.00136637054451,-4.00910598428,2.715556608
1590675727969732674,152.300807719,1127.46108806,-2.12099228853,0.0454977186686,-0.00153799559258,-4.09239637738,2.758023424
1590675728012998135,152.304951608,1127.46056121,-2.12185321325,0.0446849167545,-0.00189824243377,-4.16566207899,2.80128896
1590675728062281506,152.310430507,1127.46047725,-2.12270700757,0.0422197316485,-0.00292196533071,-4.2740829573,2.850572288
1590675728115043317,152.315056506,1127.4615106,-2.12354709662,0.039902388485,-0.00179211666612,-4.35326797466,2.903334144
1590675728174408415,152.319745567,1127.46321169,-2.12437196428,0.0368451888801,-0.00100922285754,-4.42065393336,2.962699264
1590675728230896780,152.323913189,1127.46541432,-2.12517392741,0.0328021127492,0.000242188945635,-4.48224957917,3.019187712
1590675728274236300,152.330339542,1127.46882755,-2.1259254934,0.0268199938178,-0.00157644498703,-4.57469915697,3.062527232
1590675728307808411,152.336061505,1127.47338018,-2.12668513563,0.0217387215999,-0.000723027548651,-4.64297692567,3.096099328
1590675728361441133,152.341327606,1127.47802029,-2.12742389686,0.0153640498169,0.000535044409219,-4.70116819763,3.14973184
1590675728415164006,152.34631007,1127.48307384,-2.12812533751,0.00880477411627,0.00160663068182,-4.75458831578,3.20345472
1590675728458233589,152.353224035,1127.49087552,-2.12878278548,0.00160654313282,0.000334895530577,-4.83570855127,3.246524416
1590675728510663362,152.359145757,1127.49825229,-2.12944078455,-0.00613839280934,0.00143382548804,-4.8958484828,3.29895424
1590675728574974030,152.365016958,1127.5056965,-2.13007324789,-0.0131228564265,0.00212818449987,-4.94745249045,3.363264768
1590675728611819275,152.370280206,1127.51303618,-2.13063865904,-0.0194275402687,0.00311212384874,-4.99492552713,3.40011008
1590675728656517535,152.377850557,1127.52405404,-2.13116858369,-0.022838661029,0.0012387748459,-5.06716841583,3.444808448
1590675728706589277,152.384640411,1127.53397748,-2.13170422795,-0.0278466164694,0.00171339236358,-5.12025068507,3.49488
1590675728781697767,152.390973251,1127.54360443,-2.13221900205,-0.0315805548448,0.00260063841972,-5.16503937184,3.569988608
1590675728815743110,152.399120949,1127.55694591,-2.13267132845,-0.0291645906227,0.00118254213004,-5.22778418792,3.604034048
1590675728868212187,152.406195316,1127.56892367,-2.13311014049,-0.0298199675628,0.00203512242905,-5.27229127204,3.65650304
1590675728915453980,152.412663877,1127.58001507,-2.13354007121,-0.0302211222559,0.00309565770703,-5.30836192742,3.703744768
1590675728959977313,152.418644377,1127.5905176,-2.13378465601,-0.0276048853124,0.00352989188988,-5.33905439455,3.748268032
1590675729004851954,152.427123412,1127.60535586,-2.13410013933,-0.0159492999891,0.0011625000476,-5.37987318418,3.793142784
1590675729054758753,152.434351432,1127.61837267,-2.13441957162,-0.010983022371,0.00178023941885,-5.40649229091,3.843049472
1590675729114483970,152.441367727,1127.63045093,-2.13469173912,-0.00646088232344,0.00211528007108,-5.42518678921,3.902774784
1590675729165638382,152.447710483,1127.64166256,-2.13491143918,-0.00151822629089,0.00283111959157,-5.43812644063,3.953929216
1590675729212975733,152.456374629,1127.65765833,-2.13516743715,0.0150363293427,0.000800241449532,-5.44575222362,4.001266432
1590675729264227487,152.463494201,1127.6709503,-2.13519260019,0.0223621568488,0.00134172837417,-5.44501883652,4.0525184
1590675729313447792,152.469940827,1127.68303989,-2.13534132318,0.0274680503782,0.00238142103864,-5.43737672017,4.101738496
1590675729355710944,152.475911419,1127.6944647,-2.13541296775,0.0323121676348,0.00313485099291,-5.42340013459,4.144001792
1590675729405350148,152.484804896,1127.7104727,-2.13545862177,0.0454913963981,0.00069318136401,-5.38417256586,4.19364096
1590675729466244152,152.492204952,1127.7237736,-2.13553628581,0.0475835520143,0.00187267296119,-5.34667290142,4.254534912
1590675729538266710,152.498703094,1127.73568063,-2.13552936358,0.0466994746355,0.00350619372954,-5.30644003138,4.32655744
1590675729566602052,152.507320505,1127.75172409,-2.13544798928,0.0493525927139,0.00258009880022,-5.22852734793,4.3548928
1590675729606643519,152.514509123,1127.76474396,-2.13537781217,0.0433472172094,0.00415313178159,-5.1628377742,4.394934272
1590675729661676768,152.520917183,1127.77615872,-2.13531839563,0.0353380949876,0.00595157129318,-5.09863880314,4.449967616
1590675729717233812,152.526828612,1127.78656741,-2.13518109224,0.0271010045221,0.0072656564686,-5.03248413747,4.505524736
1590675729763597241,152.535119531,1127.80139339,-2.13501385739,0.0194191136537,0.0059898633619,-4.91475603849,4.551888128
1590675729812193865,152.542094206,1127.81345995,-2.13484236605,0.00701062408828,0.0072711262291,-4.82013248478,4.600484608
1590675729856882590,152.547797636,1127.82384013,-2.1346379188,-0.00582917521497,0.00935169228517,-4.73212593192,4.645173504
1590675729907872519,152.553314119,1127.83330156,-2.13440667477,-0.0176977922429,0.0103093551992,-4.64446098855,4.696163328
1590675729956940142,152.561389297,1127.84676968,-2.13417902858,-0.0306987652451,0.00848788407206,-4.49622890698,4.745230848
1590675730007439176,152.567688338,1127.8576179,-2.13392736131,-0.045087365391,0.00995060201917,-4.38074023474,4.79572992
1590675730058811107,152.573537154,1127.86671703,-2.13365669897,-0.0585736022641,0.0109380071893,-4.27643828568,4.847101952
1590675730107608499,152.581246247,1127.87914287,-2.13335918952,-0.0714821010412,0.00967104623269,-4.11269737058,4.895899392
1590675730167069303,152.587878221,1127.88863444,-2.13306537178,-0.0847333953295,0.0104177577537,-3.98802062024,4.95536
1590675730219429732,152.593362884,1127.89665459,-2.13273177237,-0.0948399881213,0.0118765394931,-3.87826751798,5.007720448
1590675730262233434,152.598211369,1127.9037099,-2.13237938143,-0.103003498101,0.0128999409538,-3.77414145445,5.05052416
1590675730314551541,152.605373692,1127.91361082,-2.13203867421,-0.110773435955,0.0108239803479,-3.60917235441,5.102842368
1590675730364798869,152.611131214,1127.92092224,-2.13165800565,-0.118238936018,0.0114341967108,-3.48568489383,5.153089792
1590675730413940137,152.616153048,1127.92707504,-2.13129143126,-0.123960606937,0.0123470842675,-3.37823865784,5.20223104
1590675730459975363,152.620730564,1127.9323967,-2.13088587507,-0.127353180402,0.012827741987,-3.27853489643,5.24826624
1590675730506964191,152.626680299,1127.93995346,-2.13048933863,-0.128899110064,0.0115920213851,-3.12538367741,5.29525504
1590675730556508986,152.631792476,1127.94538406,-2.13007875504,-0.130570820029,0.0119455174093,-3.01225736823,5.344799744
1590675730606434447,152.635929227,1127.94962591,-2.12966092781,-0.130003778165,0.0131074540173,-2.91565289907,5.394725376
1590675730656634765,152.639512691,1127.95329281,-2.12922082441,-0.126982066433,0.013961409368,-2.82697010385,5.444925696
1590675730717486391,152.644388302,1127.9581205,-2.12877214801,-0.118589046853,0.0130639614848,-2.69270706639,5.505777152
1590675730767253296,152.648397805,1127.96144041,-2.12831191664,-0.112166070936,0.0137063326065,-2.59404679601,5.555544064
1590675730808450966,152.651925626,1127.96365123,-2.12782921948,-0.104773355206,0.0143616127251,-2.5105159298,5.596741888
1590675730855538360,152.655203313,1127.96534535,-2.12734543771,-0.0962568825237,0.014810280431,-2.43411987579,5.643829248
1590675730905469763,152.658877437,1127.96751174,-2.12685127549,-0.0810014850423,0.0148666895237,-2.31998323487,5.693760512
1590675730955295278,152.66224814,1127.96831127,-2.12634591589,-0.0701655529271,0.0151857037815,-2.23685622619,5.743586048
1590675731012380655,152.664929977,1127.96830899,-2.12582977033,-0.060136585961,0.0160262879713,-2.16736363826,5.800671488
1590675731065622616,152.666697906,1127.96772621,-2.12530091023,-0.0502820326632,0.0172156152439,-2.10495786356,5.853913344
1590675731111705134,152.669548384,1127.96664873,-2.12475856174,-0.0349367304434,0.0164060977883,-2.01401912277,5.899995904
1590675731166135027,152.671425997,1127.96467802,-2.12420930763,-0.0240212360533,0.0170786893773,-1.94895171435,5.954425856
1590675731205601902,152.672772507,1127.96238366,-2.12365343972,-0.013790991405,0.0177188121471,-1.89522741629,5.993892608
1590675731266558643,152.674351209,1127.9588389,-2.1230831484,0.000223370120472,0.0174388364192,-1.82150757279,6.054849536
1590675731320093806,152.675032793,1127.95482384,-2.12250256242,0.0125503697086,0.0183549889151,-1.79412777029,6.108384512
1590675731364737343,152.675697724,1127.95100326,-2.1219181386,0.0178965999202,0.0177749850939,-1.73716228148,6.153028096
1590675731413081214,152.67588418,1127.9465547,-2.12134106291,0.0256911809721,0.0178760614545,-1.69373649019,6.201371904
1590675731461371536,152.675792745,1127.9398375,-2.12075743586,0.0337721647948,0.017577778103,-1.63936615291,6.249662464
1590675731514804652,152.675546747,1127.93340096,-2.12015595935,0.0407517647047,0.0171159844281,-1.61986926348,6.303095552
1590675731576635479,152.674694361,1127.92713773,-2.11954563562,0.0461384952563,0.0170293759898,-1.59576066202,6.364926208
1590675731608103268,152.673565046,1127.92109724,-2.11903771128,0.0455041186295,0.016594054663,-1.55689047268,6.396393984
1590675731655022497,152.671698519,1127.91136462,-2.11845649094,0.0446143813787,0.0162058395145,-1.51707857543,6.443313408
1590675731707328101,152.669968332,1127.90252641,-2.117871947,0.0450341554267,0.0151399278294,-1.4912009977,6.495618816
1590675731770195428,152.667747011,1127.89386154,-2.11721259773,0.0464856267533,0.0143986540687,-1.47131571704,6.558486272
1590675731822138754,152.666513643,1127.88956997,-2.11679953166,0.0443144912734,0.0127273146851,-1.46513382622,6.610429696
1590675731877788749,152.665138945,1127.88334488,-2.11624088808,0.0373150292788,0.0110154701151,-1.45387073725,6.666079488
1590675731914673924,152.660443397,1127.86787081,-2.11552663439,0.0221527370283,0.0129167572916,-1.42519850136,6.702964736
1590675731957037935,152.656955193,1127.85608038,-2.11528875402,0.0114574808871,0.0121777970736,-1.40879282473,6.74532864
1590675732008271509,152.654793868,1127.84912699,-2.11473409489,0.0153981209105,0.00979499228116,-1.40232832109,6.796562432
1590675732065201459,152.650367874,1127.8365666,-2.11423957498,-0.000135793324099,0.0101535899929,-1.38875033512,6.853492224
1590675732115192713,152.646262396,1127.82493478,-2.11377002242,-0.0104591864878,0.00908477002926,-1.37897298326,6.903483648
1590675732166141258,152.641839589,1127.81394694,-2.11333555261,-0.0196791719709,0.00830234052804,-1.37122483024,6.954432
1590675732213979128,152.637772237,1127.80327077,-2.11293444872,-0.0291086056657,0.00682298711423,-1.3647710209,7.002269952
1590675732277148776,152.631278474,1127.78739807,-2.11254767214,-0.0509723972257,0.00750712843026,-1.3564607885,7.065439488
1590675732316822820,152.625556914,1127.77384872,-2.11217929343,-0.0613894477392,0.00595770577063,-1.35099762475,7.1051136
1590675732368064271,152.620288048,1127.76116892,-2.11183814753,-0.0688755794047,0.00402226482383,-1.34698303586,7.156355072
1590675732411636789,152.614772524,1127.74926462,-2.1115334684,-0.0747538530161,0.00284836871435,-1.34402381045,7.199927552
1590675732457515159,152.607014154,1127.73213333,-2.11124050732,-0.0884339066947,0.00323531994774,-1.34154947155,7.24580608
1590675732508972085,152.600116892,1127.71749991,-2.11095298699,-0.0908618628205,0.00139936123534,-1.34089888528,7.297262848
1590675732584225989,152.593720373,1127.70430182,-2.11068949144,-0.0894089500816,-0.000816498977121,-1.34150132627,7.372516864
1590675732619820978,152.587631821,1127.69172383,-2.11046618507,-0.0863153901004,-0.00289300011364,-1.34311590543,7.408111872
1590675732657117301,152.579123284,1127.67412989,-2.11030805715,-0.0844039170341,-0.00274445709928,-1.34788571883,7.445408
1590675732718540165,152.57184451,1127.65926713,-2.11011671754,-0.0748239873299,-0.00527248643971,-1.35246317349,7.506831104
1590675732771163384,152.564778856,1127.64579058,-2.1099727317,-0.0634253487614,-0.00736314486742,-1.35734020365,7.559454208
1590675732813723547,152.555220772,1127.62769977,-2.1098825223,-0.0498456853707,-0.00745524335227,-1.36630822198,7.602014464
1590675732859108297,152.547409563,1127.61264166,-2.10979530475,-0.032155823597,-0.0106260317024,-1.37352931647,7.647399168
1590675732915749063,152.540076751,1127.59931627,-2.10974265007,-0.0146068387349,-0.0132404123755,-1.38004640447,7.704039936
1590675732959288564,152.533040831,1127.58700955,-2.10973414523,0.00184488149299,-0.0152632207836,-1.38618851117,7.747579392
1590675733008902103,152.523529604,1127.56982548,-2.10975060399,0.0212035682489,-0.0152012883849,-1.39539957538,7.79719296
1590675733063059998,152.515278528,1127.55557925,-2.10979538118,0.0409645911715,-0.017412430104,-1.40202338661,7.851350784
1590675733112080147,152.507743228,1127.54298387,-2.109868792,0.0586446297625,-0.0196938298997,-1.4074115097,7.900370944
1590675733159597959,152.500637241,1127.53135179,-2.1099854078,0.073688186062,-0.021433238473,-1.41203811676,7.947888896
