%time,field.linear.x,field.linear.y,field.linear.z,field.angular.x,field.angular.y,field.angular.z,secs_since_start
1590676130210216975,152.119160976,1128.36586543,-2.13712923636,-0.0080296639732,-0.062806801546,-0.804027581655,0.0
1590676130258414376,152.108399023,1128.36637765,-2.1368902688,-0.00454598151765,-0.063196600875,-0.820779638056,0.048197376
1590676130310971783,152.098451125,1128.36664899,-2.13661624958,-0.00164613245881,-0.061742595758,-0.834590669055,0.100754944
1590676130359600581,152.085795372,1128.36652969,-2.13626832929,0.00188425521758,-0.0542734134136,-0.851406030075,0.14938368
1590676130410320332,152.076310837,1128.36620349,-2.13585348785,0.0043309690241,-0.053299629689,-0.861870443487,0.200103424
1590676130460680550,152.068194586,1128.36573207,-2.13530073776,0.00639020789992,-0.0515086375976,-0.868667920283,0.250463488
1590676130511377950,152.059118612,1128.36468067,-2.13477354764,0.00863269058479,-0.0460034308355,-0.873552782334,0.30116096
1590676130563236596,152.05215377,1128.36352639,-2.1341723621,0.010215028035,-0.0439081773901,-0.874709591616,0.353019648
1590676130609944804,152.046919607,1128.3623067,-2.13349929189,0.0111996509044,-0.0421697706452,-0.873331137462,0.399727872
1590676130661138011,152.043142238,1128.36080649,-2.13279793127,0.0114352732595,-0.0401992803017,-0.86998876986,0.45092096
1590676130709456633,152.039086408,1128.35842847,-2.13206865676,0.0105984118059,-0.034320191122,-0.859964571401,0.49923968
1590676130757724287,152.036432378,1128.35599443,-2.13126422774,0.0102386843454,-0.03065720506,-0.850288989521,0.5475072
1590676130807003231,152.03505989,1128.3535486,-2.13041501317,0.0097153615109,-0.0276206508478,-0.839766593039,0.596786176
1590676130856865534,152.034889679,1128.35109735,-2.12955597279,0.00882968415379,-0.0246315289889,-0.828004281774,0.646648576
1590676130910322265,152.035883108,1128.34723328,-2.12866433459,0.00432518677711,-0.0192683760777,-0.805696887097,0.700105216
1590676130963627126,152.037491509,1128.34370472,-2.12772401144,0.00180924971245,-0.0144579960087,-0.78738472663,0.753410048
1590676131009551112,152.03993024,1128.34016529,-2.12676180551,-0.000727001766377,-0.010127496161,-0.770094691886,0.799334144
1590676131063396214,152.04490185,1128.33498324,-2.12577642793,-0.00750264712306,-0.00514545299322,-0.763154209563,0.853179136
1590676131111314080,152.048065134,1128.33207223,-2.12479118181,-0.00905272649401,0.00244356211863,-0.73887541727,0.901097216
1590676131161939927,152.052282316,1128.32887036,-2.12374318488,-0.0118692255094,0.00732185884076,-0.718327336229,0.951723008
1590676131212442626,152.057088832,1128.32529909,-2.1227064152,-0.0153410021588,0.0122397647082,-0.69885026952,1.002225664
1590676131262300510,152.062604566,1128.32137018,-2.12167617083,-0.0209260078738,0.0190064572167,-0.679949063504,1.052083456
1590676131312236790,152.071704989,1128.31531985,-2.12063443461,-0.0267426320334,0.020630944141,-0.649207712951,1.10201984
1590676131371273627,152.080636582,1128.30991986,-2.1196387269,-0.0288625947146,0.0245636638682,-0.625940384901,1.161056768
1590676131410963000,152.089501831,1128.30466342,-2.11864756031,-0.0302682608636,0.0296878042767,-0.605542176801,1.200745984
1590676131475466153,152.098240475,1128.29954481,-2.11768670266,-0.0300380891754,0.0315773771533,-0.586292758249,1.26524928
1590676131511691175,152.111617013,1128.29214859,-2.11676137329,-0.0339662142307,0.0356284867484,-0.557892795869,1.301474304
1590676131565512730,152.123855082,1128.28556862,-2.11585709163,-0.0336528860034,0.0383960982381,-0.536633610746,1.355295744
1590676131613404506,152.135392167,1128.27950567,-2.11500132701,-0.0321350944379,0.0425657747542,-0.51918471822,1.403187456
1590676131665119333,152.147065992,1128.27350811,-2.11415711217,-0.0305133734534,0.0463970352864,-0.503780787462,1.454902272
1590676131715138903,152.16400422,1128.2652274,-2.1133485206,-0.0297364233419,0.0461889100878,-0.482299115132,1.504921856
1590676131764730494,152.178619759,1128.25798134,-2.11258452562,-0.0257562727618,0.0510835064358,-0.467206807202,1.554513408
1590676131808720532,152.192371452,1128.25114654,-2.1118444783,-0.0209219549884,0.0554380972097,-0.455069133087,1.59850368
1590676131856111369,152.211946102,1128.24195503,-2.1111203757,-0.0149204088241,0.0539957798794,-0.438693069982,1.6458944
1590676131915884885,152.228966008,1128.23401059,-2.11045656382,-0.00692352847734,0.0581909524568,-0.42696274273,1.70566784
1590676131959710090,152.244459205,1128.22682951,-2.10982750067,0.00130764608865,0.0624737674643,-0.41713071854,1.749493248
1590676132010766559,152.259060291,1128.22009614,-2.10922782579,0.00942344812078,0.065736660975,-0.408029382701,1.800549632
1590676132059016799,152.279940702,1128.21056819,-2.10868863468,0.0193309109163,0.0613383437411,-0.393353194492,1.848799744
1590676132110269452,152.297513439,1128.2024814,-2.10822929336,0.0299686356895,0.0643015964768,-0.381762972104,1.90005248
1590676132169919657,152.313682063,1128.19501775,-2.10780292247,0.0395988811444,0.0670429215793,-0.370928553126,1.959702784
1590676132205520636,152.328470257,1128.18817114,-2.10742942722,0.0484552771965,0.0691052997219,-0.359851695595,1.99530368
1590676132255554988,152.349806111,1128.17838143,-2.10712606431,0.0578686905782,0.0620928424661,-0.3392427913,2.045338112
1590676132305859755,152.367527995,1128.16989749,-2.10688752358,0.067238262541,0.0637465875045,-0.321702283197,2.09564288
1590676132354272295,152.383612207,1128.16223093,-2.10670749146,0.0748479488217,0.0652070405855,-0.304132119102,2.144055296
1590676132404304049,152.398239083,1128.15503004,-2.10656663275,0.0808666851173,0.0661443482953,-0.285082242589,2.194087168
1590676132459806163,152.418910291,1128.14524041,-2.10646087062,0.0853142905983,0.058076270911,-0.247824914925,2.249589248
1590676132516147742,152.435553295,1128.13674234,-2.10647969856,0.088984943031,0.0586909464401,-0.216357770771,2.305930752
1590676132560049517,152.450386377,1128.12928749,-2.10656088086,0.0905110087781,0.0591553287662,-0.185760748196,2.349832448
1590676132604824052,152.470022163,1128.11935595,-2.10668236995,0.0844936378356,0.0513835185481,-0.13328868279,2.394607104
1590676132661626979,152.486089141,1128.11095509,-2.10687105133,0.0802902348494,0.0514985529283,-0.0920605008728,2.45140992
1590676132709729900,152.499536159,1128.10353312,-2.10710874,0.0745996462746,0.0526642754306,-0.0550275446317,2.499512832
1590676132762613827,152.512005213,1128.09671162,-2.10739617736,0.0667994445763,0.051889401572,-0.019670892895,2.5523968
1590676132809998685,152.528197141,1128.08785775,-2.10771903201,0.047829874416,0.0442710401668,0.0359021743894,2.599781632
1590676132864995285,152.541187946,1128.08037115,-2.10815688849,0.034611852223,0.0434137555021,0.0771512390125,2.654778368
1590676132912791453,152.552402555,1128.07372257,-2.10861667849,0.0228503337425,0.0431363884894,0.112398835926,2.702574592
1590676132961210912,152.562096466,1128.06781536,-2.10910054167,0.011546486475,0.0425827885219,0.144854988065,2.75099392
1590676133009248175,152.57458766,1128.06024381,-2.10966630188,-0.00917253013827,0.0354573403413,0.194334725526,2.799031296
1590676133063068897,152.58453769,1128.053949,-2.11028423403,-0.0224936489937,0.0338792493188,0.231026532102,2.852851968
1590676133110001845,152.592504432,1128.04846547,-2.11093942315,-0.0331343998083,0.0332681798938,0.2624150912,2.89978496
1590676133166756377,152.599364368,1128.04346538,-2.11162324163,-0.0424822198211,0.031698829573,0.291231934333,2.956539392
1590676133206762983,152.607751559,1128.03707262,-2.11233804883,-0.0578891671415,0.0248434843685,0.334926099596,2.996546048
1590676133260893925,152.613864616,1128.03192539,-2.11312255855,-0.0656304844535,0.0224211336147,0.367023294447,3.050676992
1590676133314610952,152.618730589,1128.02752812,-2.11392029423,-0.070324323753,0.0202048938028,0.394362039757,3.104393984
1590676133357723012,152.622899262,1128.02382957,-2.11475073593,-0.0725477611975,0.0173122525441,0.419283249092,3.147506176
1590676133406831980,152.627255068,1128.01884522,-2.115597596,-0.0762349063331,0.0108444203669,0.457217890575,3.196614912
1590676133459133145,152.62964822,1128.01491472,-2.11647919341,-0.0752729641587,0.00789087096359,0.485249475322,3.248916224
1590676133508163899,152.630961864,1128.01163775,-2.11736904698,-0.0719539757235,0.00520685793609,0.509138349467,3.29794688
1590676133558724891,152.631711856,1128.00872964,-2.11825300838,-0.0675331965892,0.00196987586835,0.531126509681,3.348507904
1590676133607494861,152.631655237,1128.00507199,-2.11914415733,-0.0598764222785,-0.00354527552512,0.564559833176,3.397277952
1590676133658565898,152.63065737,1128.00208658,-2.12005819513,-0.0514346781731,-0.00720435596215,0.589161190463,3.448348928
1590676133714501129,152.629170854,1127.99974834,-2.12096436626,-0.0425252644161,-0.0107990374972,0.610242253487,3.50428416
1590676133760967590,152.625878162,1127.99684003,-2.12186445391,-0.0287795799719,-0.0146596093462,0.641428149743,3.55075072
1590676133810979238,152.622133894,1127.99469982,-2.12276139204,-0.0166407252976,-0.0180964709223,0.664725175571,3.600762368
1590676133863702498,152.618180569,1127.99279952,-2.12364108834,-0.00598094071881,-0.0214661645636,0.685154069174,3.653485568
1590676133916163141,152.613626822,1127.99127935,-2.12449781696,0.00410158476833,-0.0241325358776,0.704693269024,3.705946112
1590676133969985255,152.60666814,1127.98949193,-2.1253311239,0.0185123002863,-0.0260898608541,0.736608099333,3.75976832
1590676134006742784,152.599997744,1127.98793309,-2.126131158,0.0287307426347,-0.0289918175856,0.761210311565,3.796525824
1590676134060782277,152.593509896,1127.98677434,-2.12691744079,0.0372492301817,-0.0321547230432,0.783340874134,3.850565376
1590676134115615275,152.586662372,1127.98585558,-2.12766734228,0.0441898496744,-0.0342330571044,0.80469451187,3.905398272
1590676134166521713,152.576981613,1127.98482531,-2.1283975268,0.0530557388986,-0.0345734683646,0.839530286688,3.95630464
1590676134207936083,152.56792744,1127.98388082,-2.12904881332,0.0575839155702,-0.03641773385,0.866087088201,3.99771904
1590676134267159526,152.559726481,1127.98302316,-2.12969229725,0.0603573866504,-0.0394992902701,0.889722492806,4.056942592
1590676134308136092,152.547839735,1127.98222778,-2.13030944819,0.0621562397783,-0.0383155559108,0.925998669306,4.097919232
1590676134365707403,152.537088286,1127.98162037,-2.13086213345,0.0616798577995,-0.0403537602864,0.953236638208,4.15549056
1590676134412445369,152.527516804,1127.98116943,-2.13139750644,0.0596544275023,-0.04351069165,0.976975075634,4.20222848
1590676134465475106,152.518142119,1127.98082754,-2.13189489483,0.0561625247321,-0.0453366033811,0.999157247099,4.255258112
1590676134507459554,152.504742408,1127.9805581,-2.13230408456,0.0476226101678,-0.0418029407026,1.03334618519,4.297242624
1590676134556478547,152.493233223,1127.98025264,-2.13267604953,0.0394774781575,-0.0436655245156,1.05878471558,4.346261504
1590676134611509945,152.482847456,1127.97997533,-2.13302197627,0.0309322906596,-0.0459278998987,1.0805314538,4.401293056
1590676134665655074,152.468381943,1127.9797348,-2.13332938867,0.0158810307581,-0.0419809159401,1.11194056524,4.45543808
1590676134712547184,152.456376006,1127.9794588,-2.13357237372,0.00366920380452,-0.0436963150943,1.13475347398,4.502330112
1590676134763581723,152.44511989,1127.97919855,-2.1338936702,-0.00779597497275,-0.0458314742414,1.1539750078,4.553364736
1590676134812643712,152.435352193,1127.97898657,-2.13388092429,-0.0176018293646,-0.0451945605571,1.16029496074,4.60242688
1590676134865520751,152.421205417,1127.97885113,-2.1340143844,-0.0345426674673,-0.0391630864939,1.17218217823,4.65530368
1590676134907986725,152.409583914,1127.97873967,-2.1339968637,-0.0460966692167,-0.0388055195025,1.20380877825,4.697769728
1590676134956232436,152.399296882,1127.97826865,-2.133999671,-0.0561603369685,-0.0392913481656,1.22327036532,4.746015488
1590676135005688457,152.389802794,1127.97789601,-2.1339841435,-0.0644665151789,-0.0390369792316,1.23739629693,4.795471616
1590676135069099269,152.384972939,1127.97767062,-2.13397257571,-0.0764346631294,-0.042555000254,1.24162398751,4.858882304
1590676135120218024,152.374455612,1127.97722009,-2.13386688438,-0.0829428038486,-0.034226426462,1.25499549651,4.910001152
1590676135164829890,152.364896443,1127.97664424,-2.13365991696,-0.0840245342717,-0.0314689649126,1.26517748503,4.954612992
1590676135214692203,152.356373179,1127.97624237,-2.1334386076,-0.0857293368217,-0.0301759126641,1.27273039535,5.004475136
1590676135262316467,152.348454706,1127.9757155,-2.13318554217,-0.0894442901913,-0.0275910314337,1.27691157682,5.052099584
1590676135314196828,152.337150866,1127.97466396,-2.13290721914,-0.0902370825726,-0.021803464946,1.28269151564,5.103979776
1590676135376995516,152.328139899,1127.97377215,-2.13258272844,-0.0887061553865,-0.0217279438046,1.2848204975,5.166778624
1590676135412243434,152.32043548,1127.97275405,-2.13224520469,-0.0856316784571,-0.0222820797413,1.28457742863,5.202026496
1590676135457576041,152.310348736,1127.9712134,-2.13183443168,-0.0778839246244,-0.0182292234629,1.27959426162,5.247358976
1590676135521218792,152.30247759,1127.96984583,-2.13144280206,-0.0702204267966,-0.019000756038,1.2739221289,5.311001856
1590676135572606775,152.295922918,1127.96859856,-2.13101704009,-0.0615406282117,-0.0198981986894,1.26712204834,5.36238976
1590676135612499879,152.290095654,1127.96716312,-2.13057323917,-0.0524220681692,-0.0199173269367,1.25896400302,5.402283008
1590676135675199172,152.282551325,1127.96497576,-2.13010440963,-0.0373458933268,-0.0159764437471,1.24182849532,5.464982272
1590676135708806821,152.277163184,1127.96300844,-2.12962184907,-0.0246163718939,-0.0159581226921,1.22692353203,5.498589952
1590676135757509319,152.272497036,1127.96109787,-2.12907455776,-0.0130384468595,-0.0152477228735,1.211938584,5.547292416
1590676135807916419,152.268711448,1127.95913298,-2.12854536692,-0.00189499391491,-0.0143638635447,1.19578141886,5.597699584
1590676135872975233,152.26383214,1127.95621294,-2.12799747041,0.0143577567278,-0.00978971027398,1.16541394824,5.6627584
1590676135915121845,152.260422765,1127.95354472,-2.12740985621,0.0266310901128,-0.00825200412251,1.14021946362,5.70490496
1590676135974229155,152.257833792,1127.95124976,-2.12681413981,0.0368548912956,-0.00690175350582,1.11585813276,5.764012288
1590676136006565471,152.255690701,1127.94881577,-2.12622433187,0.0449198770652,-0.00513691796571,1.09064315378,5.796348416
1590676136055339179,152.253760928,1127.94538204,-2.12562703758,0.0555491936345,-0.00172718909395,1.04510592418,5.845122304
1590676136119366679,152.252445968,1127.94231158,-2.12502399303,0.0633580644808,0.000342943888716,1.00802713304,5.909149696
1590676136163672661,152.251992794,1127.93966987,-2.12441938455,0.0687421780731,0.00147199016646,0.973101192804,5.953455616
1590676136219309678,152.25147565,1127.93704957,-2.12382527844,0.0714860907588,0.00321181656995,0.937820051481,6.009092608
1590676136264085890,152.251948333,1127.93300858,-2.12324147286,0.0725958108169,0.00476726098622,0.876006489182,6.053869056
1590676136305877131,152.252418072,1127.92978309,-2.12265997459,0.0726268403408,0.00604933314005,0.827092738502,6.095660288
1590676136357369655,152.253392212,1127.92693791,-2.12209211835,0.071384708893,0.00665976638781,0.781876601518,6.14715264
1590676136406288137,152.254631452,1127.92406588,-2.12154298679,0.0682432290796,0.00724786770313,0.737160302413,6.196071168
1590676136480482655,152.257055637,1127.91999964,-2.12100634875,0.059535548716,0.00719470566906,0.662197708506,6.2702656
1590676136526844135,152.259597738,1127.91663434,-2.12048234967,0.0529102493758,0.00767739115262,0.603857785135,6.3166272
1590676136564631611,152.262138685,1127.91387004,-2.12000011045,0.0454536267473,0.0079039856432,0.55207343262,6.354414592
1590676136608461164,152.264711923,1127.91110129,-2.11952030206,0.0377303027845,0.00866433380254,0.501542562293,6.398244096
1590676136655631542,152.268833818,1127.90694917,-2.11906761079,0.0222762628354,0.00806089102419,0.420533314493,6.445414656
1590676136708116004,152.272772691,1127.90384455,-2.11863594203,0.0122668840127,0.00877865030036,0.35891975357,6.497899008
1590676136754578219,152.276049086,1127.90099004,-2.11822830671,0.00342614839601,0.0103861576896,0.304938724039,6.544361216
1590676136804151322,152.281572134,1127.89704606,-2.11783846346,-0.0110903664115,0.0095038917028,0.223196236472,6.593934336
1590676136855785176,152.286242519,1127.893836,-2.11748096782,-0.0200399625978,0.0108935824626,0.161884470592,6.645568256
1590676136909945629,152.29039444,1127.89116241,-2.11715211834,-0.0267767863587,0.0123923760429,0.108607440287,6.69972864
1590676136961246741,152.294785647,1127.8887276,-2.11683396825,-0.032867719335,0.0130588168247,0.0582719735707,6.75102976
1590676137016733769,152.300857671,1127.88500155,-2.11655594639,-0.0430824402998,0.0118371422091,-0.0210315607159,6.806516736
1590676137068562718,152.30628753,1127.88213195,-2.11631595947,-0.047904261256,0.012357586902,-0.0810352445654,6.858345728
1590676137113451680,152.311343687,1127.87962156,-2.11609307449,-0.0508992956373,0.0130442236876,-0.133708866188,6.903234816
1590676137173531994,152.316135964,1127.8775193,-2.11591674136,-0.0522826121151,0.0132324544283,-0.183272400967,6.963314944
1590676137206173941,152.323447299,1127.8739442,-2.11574567913,-0.0554522499784,0.0101414451661,-0.261946896648,6.995956992
1590676137255892106,152.329499128,1127.8713716,-2.115633224,-0.0542004971309,0.0102487701832,-0.321200786196,7.045675264
1590676137307205805,152.334854478,1127.86923036,-2.11552023805,-0.0515915428738,0.0108038416159,-0.373009833322,7.096988928
1590676137367383444,152.339795263,1127.86728563,-2.11542029527,-0.0479665306813,0.0109774207161,-0.421587103663,7.157166592
1590676137413527372,152.347131145,1127.86399935,-2.11534291522,-0.0414014372486,0.00733053883881,-0.496325110939,7.203310336
1590676137472793134,152.353666288,1127.86176187,-2.1153354409,-0.0328091368877,0.00650572037936,-0.551187742848,7.262576128
1590676137505834204,152.359236564,1127.85974876,-2.11533807044,-0.0241721877041,0.00690009202282,-0.597509741936,7.29561728
1590676137556668281,152.366899936,1127.85661494,-2.11534274895,-0.0106427325878,0.00388882458047,-0.662388607374,7.3464512
1590676137604945229,152.373108388,1127.85435559,-2.11537602414,0.00186516584255,0.00431488755036,-0.708082497253,7.394728192
1590676137654905913,152.378474518,1127.85224588,-2.11541819656,0.0131802122361,0.00507664846791,-0.744570215321,7.444688896
1590676137713279027,152.383878791,1127.8504051,-2.11547593515,0.02382153048,0.00483771133494,-0.775582212825,7.503062016
1590676137770466021,152.390903639,1127.8474947,-2.11554809439,0.037998235681,0.0024084858451,-0.816041805872,7.560249088
1590676137808598616,152.39670598,1127.84521966,-2.11566966218,0.048280764887,0.00278780426421,-0.842742452624,7.598381568
1590676137863467751,152.401835043,1127.8432257,-2.11579116468,0.0560848375785,0.00345989775706,-0.862477246949,7.653250816
1590676137911108668,152.408707028,1127.84040255,-2.11591185086,0.0639163740533,0.00126608143561,-0.884031479616,7.700891648
1590676137961905822,152.414432616,1127.83807356,-2.11607232374,0.0683250826532,0.00163095810748,-0.896686797035,7.75168896
1590676138010464958,152.41952427,1127.83597641,-2.11623120472,0.0701108845912,0.00220455642605,-0.904455247979,7.800248064
1590676138062809524,152.426357062,1127.83304572,-2.11640306844,0.0678259338243,-0.000254498863858,-0.908925079973,7.85259264
1590676138105996267,152.432082346,1127.83080429,-2.1165942763,0.0652400751509,2.15650231218e-05,-0.909314208086,7.895779328
1590676138156194681,152.437169101,1127.82870047,-2.11678897876,0.0609047516662,0.000578209081912,-0.906773830292,7.9459776
