%time,field.linear.x,field.linear.y,field.linear.z,field.angular.x,field.angular.y,field.angular.z,secs_since_start
1591011212766483325,152.068655086,1128.2065051,-2.10655525333,-0.0389426730453,-0.0552661981462,2.72224743725,0.0
1591011212816880598,152.057772552,1128.21709475,-2.10719534465,-0.00462442693135,-0.0458189224338,2.49870982252,0.05039744
1591011212877370962,152.049276673,1128.22614141,-2.10785665944,0.0190362722022,-0.0416390780084,2.33102909298,0.11088768
1591011212928376628,152.042642686,1128.23401627,-2.10855812989,0.0388912627392,-0.0387612293527,2.18591777415,0.161893376
1591011212975442288,152.037610984,1128.24082193,-2.10935609587,0.0563021253357,-0.0360106857633,2.05189526646,0.208958976
1591011213015367319,152.031851726,1128.24864187,-2.11021301416,0.0846120707869,-0.0288643924317,1.84746994032,0.248884224
1591011213065692520,152.027722138,1128.2553623,-2.11107145955,0.101897010853,-0.0252839320647,1.69637516097,0.299209216
1591011213127128923,152.02501703,1128.26094995,-2.11195223274,0.113808977352,-0.022708210864,1.56756001714,0.360645632
1591011213178976069,152.023626106,1128.2657648,-2.11288780902,0.121554107437,-0.0204716221207,1.44984734332,0.4124928
1591011213217844263,152.022930222,1128.2708064,-2.113884956,0.129083987945,-0.0158208414724,1.27332008568,0.451361024
1591011213265688764,152.023092271,1128.27496053,-2.11489404764,0.130100038021,-0.0123829992911,1.14387586231,0.499205632
1591011213316199119,152.024234769,1128.27838865,-2.11589865797,0.128193831222,-0.00926157366958,1.03416782625,0.549715968
1591011213366900624,152.026412328,1128.2808272,-2.11692017837,0.12232759007,-0.00642809787802,0.934711952864,0.600417536
1591011213416805404,152.030710999,1128.28292846,-2.11795853644,0.107881589094,-0.00243334319262,0.78699165644,0.650322176
1591011213481400547,152.035111918,1128.2847082,-2.11900952437,0.0935720754596,0.00226982344903,0.678849653609,0.714917376
1591011213523530022,152.040017951,1128.2860841,-2.12005851595,0.0776995701378,0.00627145138218,0.587919183115,0.757046784
1591011213567217714,152.045674122,1128.28692592,-2.12109056652,0.0599799241411,0.00952616214999,0.505064991701,0.800734464
1591011213616627036,152.054928557,1128.28675495,-2.12212619063,0.027514258772,0.0122694465038,0.379308021895,0.850143744
1591011213667552542,152.063503677,1128.28654569,-2.12316861332,0.00264567233039,0.0173117148774,0.286397289963,0.901069312
1591011213716522226,152.071626253,1128.28613112,-2.12418334333,-0.0194446518704,0.022476863583,0.206939910318,0.95003904
1591011213777234539,152.084283233,1128.28435603,-2.12520878919,-0.0559279710849,0.0245963479899,0.178104239823,1.010751232
1591011213828938470,152.091323184,1128.28322655,-2.12619696405,-0.0788599333141,0.0341045546584,0.0806614667179,1.062455296
1591011213879032427,152.104323693,1128.28119148,-2.12715762742,-0.0998775631724,0.0329172462439,0.00145437847924,1.11254912
1591011213916287449,152.115662902,1128.27904451,-2.12805183545,-0.114824352547,0.0358234294201,-0.110045180194,1.149804288
1591011213965266361,152.131995753,1128.27559661,-2.12895626254,-0.137503424366,0.0354624772235,-0.22915610409,1.198783232
1591011214016718636,152.146476134,1128.27288054,-2.12993071713,-0.150522507099,0.0413676466696,-0.310903879889,1.250235392
1591011214081930416,152.154178875,1128.27132801,-2.13071612686,-0.148630812527,0.0499348618013,-0.340670788735,1.315447296
1591011214130650020,152.163659881,1128.26941972,-2.13148437107,-0.152057323934,0.0528003210655,-0.386597255804,1.364166912
1591011214172062502,152.174406033,1128.26694733,-2.13214501978,-0.152719802846,0.0523400614621,-0.436092020808,1.405579264
1591011214223601007,152.19122374,1128.26202128,-2.13281302624,-0.151400239643,0.047494284645,-0.513647484049,1.457117696
1591011214275161241,152.206165624,1128.25706559,-2.13345973804,-0.144056659744,0.0496988188909,-0.568621026272,1.508678144
1591011214322285279,152.220514634,1128.2528854,-2.13407946521,-0.131547235722,0.0523546348518,-0.612055721772,1.555802112
1591011214379345657,152.240289371,1128.24624915,-2.13462016409,-0.108762415594,0.048721297394,-0.664061903234,1.612862464
1591011214431463991,152.257323369,1128.24037967,-2.13515808368,-0.0853053682823,0.0522641936325,-0.696096345638,1.664980736
1591011214468356464,152.272129384,1128.23472204,-2.13558649802,-0.0612623691421,0.0564187981593,-0.716435550617,1.701873152
1591011214517985955,152.286259763,1128.22917417,-2.13593775796,-0.0368441904707,0.0588124390207,-0.728298365328,1.751502848
1591011214569696377,152.306305156,1128.22065676,-2.13624224441,-0.000786354757122,0.05269218321,-0.728664173089,1.803213056
1591011214617876185,152.322783514,1128.21299559,-2.13653353936,0.0290193155499,0.0549625605759,-0.720918372234,1.851393024
1591011214666152618,152.337758379,1128.20580459,-2.13675798272,0.0550916472509,0.0570978090282,-0.706281028407,1.899669504
1591011214717017083,152.351825817,1128.19864867,-2.13689915055,0.0777428138013,0.057792027174,-0.685378941596,1.950533888
1591011214766256343,152.371192722,1128.18841573,-2.13699110133,0.105916747821,0.0500203446364,-0.635925558879,1.999773184
1591011214817721387,152.387220805,1128.17935132,-2.13709404427,0.127021848755,0.0507253449932,-0.591786936974,2.051238144
1591011214866961605,152.401295393,1128.17081681,-2.1370994605,0.141969425806,0.052000708968,-0.546808373096,2.100478464
1591011214925297088,152.414325122,1128.1628122,-2.13708491036,0.153612538876,0.0524563768914,-0.498511908332,2.158813952
1591011214983037362,152.431935989,1128.15162858,-2.1369552815,0.158597539332,0.0445166463549,-0.40991488826,2.21655424
1591011215023740295,152.446352738,1128.14173512,-2.13681986503,0.160270563448,0.0444495083994,-0.338055829872,2.257257216
1591011215066288688,152.458943807,1128.13272315,-2.13660453096,0.15746843664,0.0449763968027,-0.270710823653,2.29980544
1591011215116938607,152.470554557,1128.12423302,-2.13636736831,0.151177289038,0.0446257235372,-0.203193123253,2.350455296
1591011215167815988,152.485832735,1128.11275301,-2.13609351471,0.129544444941,0.0372978221243,-0.0890613117736,2.401332736
1591011215218475632,152.497872293,1128.10267761,-2.13579032443,0.111781087393,0.0369676101727,-0.000524599771108,2.45199232
1591011215268366978,152.508613775,1128.09357181,-2.1354190791,0.093121106811,0.036344899953,0.0786458343913,2.501883904
1591011215319197371,152.521813814,1128.08224061,-2.13500572577,0.0555552655875,0.0297996609265,0.200527125688,2.55271424
1591011215368722350,152.532194004,1128.07226333,-2.13458766397,0.0288149114108,0.0289729245899,0.291892047584,2.602239232
1591011215420721867,152.540457868,1128.06370934,-2.13412069779,0.00584069391955,0.0290156180623,0.371016050388,2.65423872
1591011215468682784,152.547511334,1128.0558368,-2.13358366233,-0.0165338812674,0.0279941550954,0.44460601355,2.702199552
1591011215520392149,152.556588866,1128.04550207,-2.13304339631,-0.055593854668,0.0216966036856,0.558415878046,2.753908992
1591011215583283951,152.563674845,1128.03661804,-2.13252056325,-0.080057763937,0.019796842175,0.643095706303,2.816800768
1591011215624611636,152.569104739,1128.02897633,-2.131954597,-0.09806058705,0.0189183088949,0.715625868002,2.858128384
1591011215673722303,152.5736339,1128.02185074,-2.13136846719,-0.113535311251,0.0174203447488,0.782721151606,2.907239168
1591011215715604764,152.578698418,1128.01298866,-2.13070723245,-0.135214903863,0.0129446473895,0.883992187084,2.949121536
1591011215777168220,152.582588097,1128.00517991,-2.13010649149,-0.146626861783,0.0106473240689,0.95890230543,3.010684928
1591011215823700837,152.585294073,1127.99836794,-2.12949734276,-0.151665217682,0.00917560272141,1.02257945901,3.057217536
1591011215867776699,152.586814388,1127.99223525,-2.12883643009,-0.151314654273,0.00817097423935,1.08056217185,3.101293568
1591011215916594289,152.588246928,1127.98455571,-2.12817437162,-0.148508528146,0.00474511934911,1.16856848512,3.150110976
1591011215978064368,152.588610632,1127.97791246,-2.12752293354,-0.140719408699,0.00269173821804,1.23347644595,3.211581184
1591011216027376173,152.588396961,1127.97199225,-2.12686121809,-0.129506396874,0.000600104520262,1.28877001719,3.260892928
1591011216066611630,152.586852386,1127.96492818,-2.12616226966,-0.106919461301,-0.00144466273214,1.36905385948,3.300128512
1591011216117565298,152.584586783,1127.95908137,-2.12547365453,-0.0852965742485,-0.00347424923322,1.42860046851,3.351081984
1591011216177866446,152.581943078,1127.95405978,-2.12478543948,-0.0637513846028,-0.00583364877087,1.47981346391,3.411383296
1591011216226044582,152.579121518,1127.94955142,-2.12410154888,-0.041766469677,-0.00845229121854,1.52766132711,3.459561472
1591011216265753557,152.573626459,1127.94395072,-2.12341713716,-0.00641824108184,-0.00931975835659,1.60258385929,3.4992704
1591011216316474762,152.56874066,1127.93914379,-2.12272772543,0.0220420560477,-0.0125384776917,1.65954959528,3.54999168
1591011216367501736,152.563716376,1127.93514817,-2.12205512504,0.0475918605976,-0.0154043625991,1.70980792382,3.601018624
1591011216417769843,152.558131605,1127.9316569,-2.12140008865,0.0710109191851,-0.0173781977185,1.75765728461,3.651286528
1591011216470869019,152.549617838,1127.92727086,-2.12075148719,0.10492781486,-0.017568740054,1.83456337667,3.704385792
1591011216521770031,152.54214212,1127.92360587,-2.12010231768,0.128381100407,-0.0203581408162,1.89313696138,3.755286784
1591011216573660699,152.534776915,1127.92071707,-2.11948468205,0.14605443536,-0.0225471409996,1.9448825706,3.807177472
1591011216619816042,152.523775743,1127.91735468,-2.1188759057,0.167641255788,-0.0212225014344,2.02449029587,3.853332736
1591011216671325193,152.513974673,1127.91475019,-2.1182733683,0.179106452489,-0.0229815225069,2.08424194517,3.904841984
1591011216721308114,152.50486119,1127.91270016,-2.11769605089,0.185128639768,-0.0250825675884,2.13638449374,3.95482496
1591011216769019184,152.496178255,1127.91101821,-2.11715000507,0.1869020546,-0.0266418042426,2.1853329301,4.002535936
1591011216822067784,152.483541145,1127.90957051,-2.11662382836,0.183601507534,-0.0232377658622,2.26118575076,4.055584512
1591011216868755797,152.472451309,1127.90857906,-2.11610876828,0.175312141149,-0.0239309520274,2.31712340934,4.102272512
1591011216920847851,152.462201874,1127.90795551,-2.11560890543,0.164270478989,-0.0254217543628,2.36469699074,4.154364672
1591011216970527936,152.452492002,1127.90782717,-2.11515099753,0.150249521539,-0.0264621770453,2.4077773724,4.2040448
1591011217020288836,152.438356774,1127.90871776,-2.11471986314,0.123423090073,-0.0220729859182,2.47009148396,4.253805568
1591011217072311635,152.425945209,1127.90960982,-2.11426982381,0.0988474693681,-0.022939043669,2.49193504468,4.305828352
1591011217119514612,152.414605206,1127.9109562,-2.11389022818,0.0745618298907,-0.0243777671191,2.53984682693,4.353031424
1591011217167217350,152.399076886,1127.91358462,-2.11352284392,0.0356193969352,-0.0208181700745,2.58686787181,4.400734208
1591011217217196739,152.385967516,1127.91624553,-2.11315343472,0.00416294096819,-0.0227979413696,2.61494665714,4.4507136
1591011217266688741,152.374268408,1127.91899787,-2.11283656735,-0.0236952608083,-0.0252416672503,2.63302556714,4.500205568
1591011217317313257,152.363373412,1127.92206845,-2.11255764248,-0.0490387031322,-0.0270501787001,2.64448499866,4.55083008
1591011217378341819,152.357487235,1127.92399823,-2.11214494265,-0.0916174248677,-0.0354210504202,2.6445657133,4.611858688
1591011217432836322,152.345652842,1127.92809736,-2.11213035227,-0.108349316287,-0.0282192673348,2.64793237406,4.666353152
1591011217468228091,152.32927432,1127.93414921,-2.11194495054,-0.1234551534,-0.0214178032127,2.64124718478,4.701744896
1591011217516930651,152.315696954,1127.93983277,-2.11170838833,-0.137776520077,-0.0229679963012,2.62985878561,4.75044736
1591011217566636875,152.299016149,1127.9474075,-2.11152487347,-0.1510146704,-0.0210871401476,2.60066064452,4.8001536
1591011217617465487,152.285339959,1127.95399123,-2.11136228368,-0.158347249947,-0.0243813176245,2.57366473238,4.8509824
1591011217666199273,152.273392234,1127.9601835,-2.11125096687,-0.160295260656,-0.0276598199631,2.54532560171,4.899716096
1591011217716716428,152.263006759,1127.96609876,-2.11120049025,-0.157237038234,-0.0302171365113,2.5144257632,4.950233344
1591011217769220402,152.257720573,1127.969311,-2.11115382616,-0.157352481939,-0.0358899723581,2.50292291354,5.002737152
1591011217816829879,152.2458163,1127.97616149,-2.11117897087,-0.139745588609,-0.0296500859202,2.452373208,5.050346752
1591011217866711627,152.235424806,1127.98272056,-2.11116101446,-0.123525942911,-0.0286041455089,2.4075966668,5.100228352
1591011217917836361,152.225906848,1127.98904921,-2.11116731975,-0.105933993242,-0.0284059505087,2.36359378759,5.151353088
1591011217966347705,152.212647372,1127.99758897,-2.1111915649,-0.071027888431,-0.0229722540402,2.28873728739,5.199864576
1591011218018319747,152.201476959,1128.00516085,-2.11120100586,-0.0446987154829,-0.0227632214913,2.2298974189,5.251836672
1591011218066514608,152.192079973,1128.01203797,-2.11128724439,-0.0206460288516,-0.0236525072187,2.17682692782,5.300031488
1591011218117022362,152.183617329,1128.01852332,-2.1113799102,0.00267098692306,-0.0240250280789,2.12511379903,5.350539264
1591011218167892126,152.17200391,1128.02711816,-2.11150489106,0.0419609733565,-0.0190761591493,2.04073523557,5.401409024
1591011218217029030,152.162289587,1128.0344656,-2.11163189655,0.0675824954978,-0.0187933026054,1.97585920629,5.45054592
1591011218267021171,152.154168442,1128.04123713,-2.11178880977,0.0879935766882,-0.0198013526632,1.91796142506,5.500537856
1591011218325478147,152.143763487,1128.0497781,-2.11197158821,0.117836796944,-0.016701563852,1.82758597476,5.558994944
1591011218379242870,152.135768128,1128.05688031,-2.11217168649,0.133210284942,-0.0179927318383,1.75849711499,5.612759552
1591011218427867255,152.128565407,1128.06332488,-2.11237846516,0.143472388269,-0.0190168841904,1.69665813301,5.661383936
1591011218467747077,152.122456713,1128.06900917,-2.11270843734,0.146930208363,-0.0198820294639,1.6378372964,5.701263872
1591011218521868156,152.11469803,1128.0765151,-2.11297612937,0.152714606729,-0.0182452544843,1.54042566124,5.755384832
1591011218572847999,152.108679739,1128.08287435,-2.11326019109,0.149689037077,-0.0194906563977,1.46514771678,5.806364672
1591011218623479709,152.103621471,1128.08848162,-2.1135555826,0.142563973796,-0.0208258688659,1.39733240028,5.856996608
1591011218679297059,152.097551637,1128.09524189,-2.11391039549,0.126249504791,-0.0199177798882,1.29063156339,5.912813824
1591011218717655474,152.092959289,1128.10106342,-2.11424679543,0.108835724352,-0.0210312778312,1.2082895599,5.951172352
1591011218767087906,152.089210805,1128.10619707,-2.11460506597,0.0900583606963,-0.0218316916556,1.13455326719,6.000604672
1591011218817063502,152.086443743,1128.1106743,-2.11496503437,0.0697905884734,-0.022614549806,1.06312740246,6.050580224
1591011218869797191,152.083176384,1128.115936,-2.11536079876,0.0365395583538,-0.0212369058919,0.946756232719,6.10331392
1591011218918191306,152.080642545,1128.1205478,-2.11574638056,0.00938143856607,-0.0206629750202,0.856908795842,6.15170816
1591011218967878739,152.079046117,1128.12461813,-2.11614321457,-0.0150277969961,-0.0204463634925,0.776725990665,6.201395456
1591011219018198802,152.077962629,1128.12879888,-2.11655812438,-0.0514698758067,-0.0192569882799,0.652105099393,6.251715584
1591011219070751113,152.077144649,1128.13238334,-2.11698689002,-0.0777011305987,-0.0178864525152,0.557349231417,6.304268032
1591011219117928062,152.076989075,1128.13544719,-2.1174151705,-0.0992749093305,-0.0169104692661,0.473460886392,6.351444736
1591011219168695171,152.077714768,1128.13788779,-2.11786738954,-0.116780229718,-0.016399097545,0.394089184493,6.402212096
1591011219217673653,152.07944683,1128.13997477,-2.11831775973,-0.141794494394,-0.0155219534483,0.266894548177,6.451190528
1591011219268227585,152.081198723,1128.14191742,-2.11878126019,-0.156204156021,-0.0138131347024,0.170524930382,6.501744384
1591011219318301386,152.08293718,1128.14334589,-2.11924726506,-0.16489042163,-0.0118543366982,0.0862235239558,6.55181824
1591011219367052129,152.085174213,1128.14417684,-2.11970806019,-0.170273306775,-0.0105165871984,0.00680626559741,6.600568832
1591011219418529192,152.08925042,1128.14416853,-2.12017370431,-0.173973242369,-0.0103452621456,-0.117287866615,6.65204608
1591011219470378912,152.093293295,1128.14395784,-2.12065177052,-0.171752457927,-0.00882591451192,-0.210239365479,6.703895808
1591011219518274026,152.09729298,1128.14344918,-2.12112490621,-0.165549595505,-0.00691199554656,-0.290599314676,6.751790848
1591011219577317333,152.103360489,1128.14151652,-2.12159404595,-0.152229190188,-0.00673131049059,-0.409269354275,6.810834176
1591011219643226713,152.108989024,1128.13971996,-2.12207295971,-0.137573053405,-0.00474249209415,-0.496647300364,6.876743424
1591011219667725208,152.114841318,1128.13784312,-2.12253558606,-0.121303254998,-0.00323936387623,-0.570713752028,6.901242112
1591011219718013879,152.120291861,1128.13561675,-2.12298927947,-0.104240136084,-0.00108527862159,-0.638803336801,6.951530752
1591011219766050562,152.128665175,1128.13127461,-2.1234351428,-0.0768870353378,-0.00201321081602,-0.741307526473,6.99956736
1591011219817038280,152.13655466,1128.12736407,-2.12389353227,-0.0528621158087,-0.000450377146864,-0.816191939214,7.050555136
1591011219867347031,152.143614165,1128.12356878,-2.12433893356,-0.0305522837401,0.00226127509687,-0.879013193587,7.100863744
1591011219916918106,152.150691509,1128.11956605,-2.12475969785,-0.00951354776157,0.00407987478915,-0.935511005593,7.150434816
1591011219965912331,152.161461602,1128.11306531,-2.12517132463,0.0205307791695,0.00196391327073,-1.01758088748,7.19942912
1591011220016458123,152.170612482,1128.10720576,-2.12560152548,0.0444979590459,0.00451056521197,-1.0762474048,7.24997504
1591011220066567989,152.175632255,1128.10391112,-2.1260170242,0.0557401746573,0.0105633584023,-1.09816458481,7.300084736
1591011220117163437,152.18200491,1128.1001514,-2.12636195133,0.0699395276952,0.0114578879829,-1.13205267707,7.35068032
1591011220167306052,152.193334643,1128.09283656,-2.12670048392,0.0909451629798,0.00707234103874,-1.19079220719,7.400822784
1591011220217257097,152.203233742,1128.08650773,-2.12706358434,0.107953821259,0.00830715346904,-1.23305756533,7.450774016
1591011220266309455,152.212859223,1128.08042343,-2.12741198877,0.121791005524,0.0100501918687,-1.26722771091,7.499826176
1591011220316154404,152.222291313,1128.07423295,-2.12773285098,0.132486258882,0.0116256060286,-1.29636306059,7.549671168
1591011220366977005,152.235810623,1128.06538557,-2.12802767726,0.143020635233,0.00846910844362,-1.33400194511,7.600493824
1591011220416010439,152.247954743,1128.05769552,-2.12834044016,0.150807258205,0.0100798782624,-1.35841664652,7.649527296
1591011220466494460,152.258738978,1128.05063289,-2.12861449145,0.154943794142,0.0129226944788,-1.37560805957,7.700011264
1591011220516590299,152.274039975,1128.04106046,-2.128862849,0.153312184244,0.00932135461668,-1.39122395183,7.750107136
1591011220567215589,152.287081658,1128.03295295,-2.1291094417,0.151023889248,0.0114978105922,-1.39804089648,7.800732416
1591011220616770689,152.299380952,1128.0256315,-2.12932771598,0.14685290273,0.0136546248242,-1.39896943459,7.850287616
1591011220678704157,152.31070986,1128.01898009,-2.12952127196,0.14063227043,0.0158704064629,-1.39500884995,7.912220928
1591011220731733269,152.326832255,1128.00958449,-2.12972128036,0.123450386512,0.0114313159391,-1.37628680744,7.965250048
1591011220768080700,152.340531276,1128.00185085,-2.12980426293,0.108594650407,0.0124013980919,-1.3566320947,8.00159744
1591011220819739547,152.353206726,1127.99486855,-2.12994877963,0.0958670822475,0.0147039756995,-1.33304563805,8.053256448
