%time,field.linear.x,field.linear.y,field.linear.z,field.angular.x,field.angular.y,field.angular.z,secs_since_start
1591962133440667995,152.552372331,1128.01534668,-2.13235676888,0.185349880226,0.0459917817651,0.774725370774,0.0
1591962133489061359,152.553882574,1128.00702543,-2.13234725238,0.182433940139,0.0449543825438,0.75083350464,0.048393472
1591962133538828489,152.555945405,1127.99258026,-2.13238928983,0.179134731729,0.0422356544196,0.702593078724,0.09816064
1591962133592775625,152.55725499,1127.98054689,-2.13237581107,0.180426337396,0.0404594350959,0.662767152507,0.152107776
1591962133636938748,152.558146868,1127.96991525,-2.13225720124,0.179550309129,0.0383742731086,0.625204019486,0.196270848
1591962133689819776,152.558815873,1127.95575064,-2.13209567971,0.171294522139,0.0349341515683,0.562696398818,0.249151744
1591962133734713482,152.558838361,1127.9449377,-2.13188709973,0.168074796121,0.0322990817767,0.51348099028,0.294045696
1591962133783214064,152.557996156,1127.93601672,-2.13157957443,0.162239344269,0.0302302745333,0.468829745225,0.342546176
1591962133833187045,152.556682783,1127.92829906,-2.13125080953,0.154943192281,0.0279151334136,0.424964067115,0.392519168
1591962133887401182,152.554069554,1127.91868367,-2.13085777499,0.135940517033,0.0251529412787,0.352110667127,0.446733312
1591962133935303793,152.551274775,1127.91173758,-2.13038681452,0.122399524102,0.0220400946207,0.295183949003,0.494635776
1591962133985937478,152.547861284,1127.90640407,-2.12988102693,0.109064543647,0.0192992514003,0.243277609926,0.545269504
1591962134035050143,152.544155605,1127.9024413,-2.12929968126,0.0949814784331,0.0164856990076,0.192818292901,0.594382336
1591962134084842504,152.538075781,1127.89796666,-2.12874495936,0.071084366444,0.013760053824,0.109412326592,0.644174592
1591962134137903041,152.532554277,1127.89565281,-2.12796141695,0.0550294669414,0.0106518503894,0.0473544924534,0.6972352
1591962134188082666,152.526578969,1127.894741,-2.12725130961,0.0406592110712,0.00711904445642,-0.00847888648485,0.747414784
1591962134235009388,152.517809356,1127.89483434,-2.12648348009,0.0180180592224,0.00455691025115,-0.0935354831659,0.794341376
1591962134285959709,152.509630489,1127.8965875,-2.12564031598,0.00262178134425,0.000328105679408,-0.158426904272,0.845291776
1591962134334972255,152.501788661,1127.89934582,-2.12476829791,-0.0101790946752,-0.00422786797022,-0.216564819906,0.894304256
1591962134383886820,152.494210467,1127.90303512,-2.12387015369,-0.020694366682,-0.00838420341652,-0.272823103469,0.943218944
1591962134433873847,152.482567639,1127.90956278,-2.12293252926,-0.0323994339949,-0.00964415427202,-0.365676765077,0.993206016
1591962134488639411,152.471833429,1127.91667594,-2.12193449979,-0.0409290226361,-0.0136987400338,-0.438243422661,1.047971584
1591962134534799390,152.462175627,1127.92440828,-2.12091901446,-0.0478775325454,-0.0187283948109,-0.504479409338,1.094131456
1591962134585892609,152.452639661,1127.93262532,-2.11990095828,-0.0539632543587,-0.0227127384023,-0.569999549327,1.145224704
1591962134634758672,152.438479448,1127.94551557,-2.11886418071,-0.055209301383,-0.0228395733859,-0.682001825085,1.194090752
1591962134689440688,152.425901679,1127.95800119,-2.11776725203,-0.0573264454485,-0.0271507781561,-0.771421541567,1.248772864
1591962134733907289,152.414304262,1127.97047881,-2.11668135358,-0.05764675355,-0.0316139862048,-0.853922428241,1.293239296
1591962134789703924,152.3975028,1127.98875042,-2.11559565448,-0.0505309174805,-0.0307343969911,-0.988912345916,1.349036032
1591962134834931522,152.383572763,1128.00586543,-2.11446346531,-0.0494726794436,-0.035593138094,-1.09537543151,1.394263552
1591962134885131039,152.370818167,1128.02228594,-2.11336820049,-0.0495118759584,-0.0398366968587,-1.19320584887,1.444463104
1591962134934674179,152.352934949,1128.04554316,-2.11227478305,-0.0380757500075,-0.0383529125876,-1.35324850957,1.494006272
1591962134984307917,152.337495577,1128.06652333,-2.1111757372,-0.0334693948003,-0.04195226741,-1.47859485826,1.543640064
1591962135033413565,152.323961062,1128.08645697,-2.11009793391,-0.0294114573938,-0.0466361171028,-1.59289865049,1.592745728
1591962135086386619,152.311064592,1128.1055835,-2.10909464588,-0.0248735245564,-0.0495577278395,-1.70449317486,1.645718784
1591962135134850115,152.293258181,1128.13319718,-2.10810960544,-0.0074482706,-0.0469535701949,-1.88979569865,1.694182144
1591962135187398128,152.277992446,1128.15794861,-2.10712322252,-0.00191627247669,-0.0498175866804,-2.03371771267,1.74673024
1591962135231161084,152.264209579,1128.18096466,-2.10621263329,0.00133294341854,-0.0529911092196,-2.1628822317,1.790493184
1591962135287219753,152.251192729,1128.20323344,-2.10529639512,0.00483993263857,-0.0558593726802,-2.28821489834,1.846551808
1591962135333751422,152.233554443,1128.23434743,-2.10456642809,0.0225734307605,-0.0520560809698,-2.48915567785,1.893083392
1591962135387651911,152.218332061,1128.26213688,-2.10367329667,0.0267270014249,-0.0550153049428,-2.64392143537,1.946983936
1591962135434207799,152.205403111,1128.28723669,-2.10312363444,0.0281778246547,-0.0574100887903,-2.77819395406,1.99353984
1591962135485726531,152.187624991,1128.3212099,-2.1024344041,0.0406069817615,-0.0544125503581,-2.82810895371,2.04505856
1591962135534162731,152.173048624,1128.34987173,-2.10185157067,0.0394266226447,-0.0573872504364,-3.00133582968,2.093494784
1591962135589138761,152.160282913,1128.37606298,-2.10133608335,0.0362454480599,-0.0607653707951,-3.14278317929,2.148470784
1591962135636137743,152.149086448,1128.40082567,-2.10090609943,0.0335974817923,-0.0635092527611,-3.27075044027,2.195469824
1591962135692093337,152.143461814,1128.41379873,-2.10047641255,0.0195233201516,-0.0710708450621,-3.39264471972,2.251425536
1591962135736119652,152.126448127,1128.45125119,-2.10035204882,0.0379746673561,-0.0576168836617,-3.64683872438,2.295451648
1591962135786650692,152.112648359,1128.48333835,-2.09983455406,0.0322219601916,-0.0577668964181,-3.80874505015,2.34598272
1591962135836520410,152.10189727,1128.51006771,-2.10017750124,0.0219228224354,-0.0576345715784,-3.86355613067,2.395852544
1591962135888624834,152.08781428,1128.54469898,-2.09991830946,0.0136203556427,-0.0536747930624,-3.94268623279,2.447956992
1591962135935828186,152.076528274,1128.57263161,-2.10003389272,-0.00152962877972,-0.05365408551,-4.13807538938,2.49516032
1591962135992433601,152.070812823,1128.58730253,-2.10009370064,-0.0279304156118,-0.0591692158434,-4.20881114606,2.55176576
1591962136036670876,152.064709898,1128.60491612,-2.10022194308,-0.0397019749968,-0.057606665333,-4.32351893857,2.596003072
1591962136092762266,152.058374413,1128.62304842,-2.10059838828,-0.0398622638905,-0.054555331132,-4.36620377844,2.652094464
1591962136136044983,152.046031934,1128.65978629,-2.10090040759,-0.0446968754673,-0.0391242054654,-4.44478911065,2.695377152
1591962136189619117,152.039619834,1128.67962582,-2.10113601114,-0.07709084295,-0.0398485392219,-4.50195385011,2.748951296
1591962136239480498,152.033761432,1128.69775866,-2.1018992627,-0.082514262227,-0.0388229742156,-4.54803389581,2.798812672
1591962136292074953,152.02892591,1128.7157849,-2.10233459218,-0.093874391961,-0.0370080192231,-4.58400110831,2.851407104
1591962136338626779,152.02209831,1128.74048378,-2.10290583437,-0.106027508365,-0.0279743957875,-4.621740148,2.897958912
1591962136389970557,152.016756601,1128.76074445,-2.10353690812,-0.121837601244,-0.02384320051,-4.64222466904,2.949302528
1591962136434756746,152.012750491,1128.77791098,-2.10424713186,-0.136253380888,-0.0211132992085,-4.65214742863,2.99408896
1591962136487483134,152.0084128,1128.79939838,-2.10505851434,-0.147921041563,-0.0140558510814,-4.64911757896,3.046815232
1591962136537637380,152.005954776,1128.81622611,-2.10591485054,-0.160814354079,-0.0114108908526,-4.63964200934,3.096969472
1591962136588664981,152.004006997,1128.83008795,-2.10686961358,-0.169514064787,-0.00849843345074,-4.62443594939,3.147997184
1591962136636538558,152.003370973,1128.84181154,-2.10786798604,-0.174737493416,-0.00630966534063,-4.60375997149,3.19587072
1591962136691193811,152.00291673,1128.85631795,-2.10894335813,-0.172936210301,-0.000310150250139,-4.55594666787,3.250525952
1591962136734541284,152.003571724,1128.86709085,-2.11005754261,-0.172956556305,0.00280610135913,-4.512931989,3.293873408
1591962136784127608,152.004808801,1128.87532099,-2.11122567605,-0.170812976225,0.005398611489,-4.46829775789,3.343459584
1591962136834092294,152.006854628,1128.88167365,-2.11243010008,-0.166058816804,0.00738714867032,-4.41916580417,3.393424384
1591962136887302176,152.010388134,1128.88890011,-2.11366948732,-0.150928653269,0.0107101697521,-4.3239611442,3.44663424
1591962136934397100,152.014122299,1128.89323071,-2.11499377546,-0.138254365115,0.0130233613794,-4.24527225199,3.49372928
1591962136984951343,152.018000005,1128.89545132,-2.11631088859,-0.126432967749,0.0159158405807,-4.16849058044,3.544283392
1591962137034772753,152.022434211,1128.89650516,-2.11764187733,-0.111944249905,0.0182181269954,-4.08899883301,3.594104832
1591962137086346819,152.029233043,1128.89622124,-2.11900109065,-0.0873840916038,0.0193896744333,-3.94694806786,3.645678848
1591962137135780995,152.035716667,1128.894153,-2.12039381074,-0.0686214226342,0.0217919991072,-3.8318896266,3.695113216
1591962137188003002,152.041984522,1128.8908395,-2.12178458416,-0.0513608862322,0.024284177418,-3.72400072965,3.747335168
1591962137234699809,152.051291213,1128.88479271,-2.12318732452,-0.025321289991,0.0244035042225,-3.54375431876,3.794031872
1591962137288091904,152.059583953,1128.87755005,-2.1246068687,-0.00499678383653,0.0273093890017,-3.4023168493,3.847424
1591962137334833957,152.067822853,1128.869707,-2.12600708274,0.0130438729082,0.0299289301137,-3.27273625414,3.894166016
1591962137383626407,152.075453313,1128.86122584,-2.12736857359,0.0287052461833,0.0327946661188,-3.14515035996,3.942958592
1591962137434394539,152.086954064,1128.84843109,-2.12871380141,0.0475088945122,0.0314139174127,-2.92945945405,3.99372672
1591962137486176100,152.09691587,1128.83553485,-2.1300924408,0.0646002658525,0.0347554059284,-2.75988482236,4.045508096
1591962137534981153,152.106406287,1128.82283984,-2.13134532046,0.0790681758494,0.0371475730543,-2.60635895338,4.094313216
1591962137589342411,152.115182156,1128.81007332,-2.13259514958,0.0932790876825,0.0401074578002,-2.45468894481,4.14867456
1591962137636395383,152.128260771,1128.79147281,-2.13380033542,0.104259986028,0.0374445662382,-2.20128824042,4.19572736
1591962137688836119,152.139474347,1128.77405871,-2.13497321115,0.113917839394,0.0400028141679,-2.00424452347,4.248168192
1591962137734760797,152.14963498,1128.75725426,-2.13607956077,0.121092458365,0.0429897638299,-1.82588451003,4.2940928
1591962137786048447,152.159185893,1128.74073885,-2.13711969429,0.126770789906,0.045211559851,-1.65178645261,4.345380608
1591962137835804566,152.172594163,1128.717853,-2.13809530083,0.128093636582,0.0416298251115,-1.36262529082,4.395136768
1591962137884110521,152.183905169,1128.69667974,-2.13902676621,0.133951257741,0.0433723951477,-1.13785801705,4.443442688
1591962137936441399,152.194036543,1128.67691329,-2.13988550997,0.139451687719,0.0453989800814,-0.934652780489,4.49577344
1591962137986573711,152.207710531,1128.65059352,-2.14066138312,0.133169797074,0.0411613575274,-0.611383352094,4.54590592
1591962138034398879,152.219147013,1128.62678433,-2.14140476522,0.132289157815,0.0424423263755,-0.362767972442,4.593731072
1591962138086451375,152.229300587,1128.60516842,-2.14204878805,0.13235992331,0.043819264201,-0.140319591603,4.645783552
1591962138135848891,152.238695685,1128.58457881,-2.14257069291,0.130694675533,0.0439861943187,0.0741158301852,4.695181056
1591962138184209820,152.251385112,1128.55701301,-2.14304838999,0.118200411425,0.0380859825983,0.425193297691,4.743542016
1591962138234065573,152.261699914,1128.53233906,-2.14347884972,0.11442424804,0.0379993561351,0.695312254083,4.79339776
1591962138286170796,152.270655389,1128.5098823,-2.14378829745,0.1111364436,0.0381566314435,0.93584859318,4.845502976
1591962138332952790,152.278852139,1128.48888716,-2.14401117937,0.105873101858,0.0374279545912,1.16653784089,4.892284928
1591962138389939712,152.289807391,1128.46096362,-2.14418063789,0.085334782577,0.0312544093903,1.53847226152,4.949271808
1591962138433309181,152.298624844,1128.43619989,-2.14426555919,0.0764813620878,0.0301553781041,1.82139176859,4.99264128
1591962138484680563,152.306231037,1128.41379503,-2.14423890349,0.0701134185233,0.0293821612027,2.0702039836,5.044012544
1591962138533442660,152.31582045,1128.38580111,-2.14415130389,0.0484781022553,0.0241513151753,2.44866047927,5.092774656
1591962138585085271,152.323426053,1128.3611896,-2.14405014484,0.0390083867894,0.0231397550502,2.73232922185,5.14441728
1591962138635913098,152.329301652,1128.33979683,-2.14372393715,0.0327157746971,0.0227899819775,2.97614897676,5.195245312
1591962138688171798,152.334798724,1128.32026147,-2.14339548248,0.0261264143443,0.0210832190596,3.20447339718,5.247503872
1591962138733574885,152.341137061,1128.29530118,-2.14299720306,0.00514105876111,0.0168148440758,3.55614171854,5.292907008
1591962138784360904,152.345901528,1128.27366346,-2.14252864294,-0.00343343447193,0.0151670560993,3.81651976861,5.343693056
1591962138834458781,152.349768354,1128.25468237,-2.14198734626,-0.00821700689826,0.0135115103082,4.03837387386,5.393790976
1591962138887671792,152.353150906,1128.23782095,-2.14144261546,-0.0121333147061,0.0113397504909,4.24224589466,5.447003904
1591962138935378862,152.356760188,1128.2168747,-2.14066369789,-0.0256232772078,0.00787970441716,4.54449511615,5.49471104
1591962138986855952,152.359049646,1128.19883658,-2.13996531398,-0.0294577039646,0.00623799212574,4.76595716243,5.546188032
1591962139035078965,152.360563533,1128.18326349,-2.13919321849,-0.0299849978849,0.00463994205859,4.9509815637,5.594411008
1591962139093394450,152.361648491,1128.16954482,-2.13835018442,-0.0296685470306,0.00276508674497,5.1169083817,5.652726528
1591962139136406649,152.361978953,1128.15290961,-2.13746610765,-0.0350587736254,0.000564770842546,5.35561858984,5.695738624
1591962139187082579,152.361949044,1128.13912027,-2.13654142813,-0.0340593446251,-0.00180314399432,5.52377211442,5.746414592
1591962139236679969,152.361188175,1128.12761733,-2.1355568113,-0.0306608575767,-0.00345154598417,5.58128457194,5.796012032
1591962139290543621,152.359376875,1128.11460807,-2.13486868612,-0.0285239003062,-0.00608982309605,5.8061924937,5.849875712
1591962139335563047,152.357332068,1128.10505815,-2.1333485736,-0.0203098153804,-0.00562222524946,5.88015439135,5.894895104
1591962139388663411,152.355882185,1128.10008236,-2.13238507338,-0.010293899037,-0.00911202924077,5.96283703963,5.947995392
1591962139436555909,152.352938231,1128.09248848,-2.13122402921,-0.0080309920938,-0.00808015870807,6.03821871527,5.995888128
1591962139491943664,152.351062195,1128.08887616,-2.13019451681,0.00218846960014,-0.0113397742342,6.10089458429,6.051275776
1591962139536638123,152.346787517,1128.08327573,-2.1291141584,0.00594122215497,-0.00993762354234,6.18895059213,6.095970304
1591962139591093138,152.342747458,1128.07918414,-2.12797843999,0.0111545782943,-0.0103956479254,6.24065222762,6.150425344
1591962139640120805,152.338430882,1128.07619605,-2.1268063646,0.0127101451275,-0.00943976753017,6.27610372867,6.199452928
1591962139690031567,152.333766847,1128.07417746,-2.12574235156,0.0162528438032,-0.00986775500993,6.29396254009,6.249363712
1591962139739679731,152.326914767,1128.07308289,-2.12467934108,0.0229238514586,-0.0081791914476,6.28897578341,6.29901184
1591962139788510445,152.320399855,1128.07328016,-2.12360970093,0.0288069618519,-0.00868030025472,6.27152374883,6.34784256
1591962139837941821,152.314095879,1128.07447008,-2.12255961269,0.0342808525143,-0.00969372566939,6.2430783913,6.397273856
1591962139890585858,152.307948959,1128.07648065,-2.1215395318,0.0380829800601,-0.0105851341293,6.20435787871,6.449917952
1591962139938161654,152.299255615,1128.08063906,-2.12053705063,0.0430095518843,-0.00892685261227,6.11483495382,6.49749376
1591962139989882594,152.291232832,1128.08555961,-2.11953634958,0.0443285860818,-0.00964526084862,6.03438149057,6.54921472
1591962140038224254,152.283608028,1128.09105916,-2.11856184247,0.0438323004482,-0.0108216889179,5.95133571745,6.597556224
1591962140090649436,152.273091849,1128.09943117,-2.11762558687,0.0472389662259,-0.00901919764587,5.79882568845,6.64998144
1591962140139742214,152.26406153,1128.1078995,-2.11669414333,0.047742065475,-0.0107533468592,5.67382343393,6.699074304
1591962140193190804,152.255397078,1128.11668132,-2.11580981782,0.0465541830883,-0.0122219523201,5.55532494942,6.752523008
1591962140237239728,152.247496365,1128.12556573,-2.11496799239,0.0433739672093,-0.0138519413283,5.43522787522,6.796571904
1591962140286527215,152.235833128,1128.13826561,-2.11416303227,0.0396519742302,-0.0109640466759,5.22502608367,6.845859328
1591962140338086662,152.225724921,1128.15053653,-2.11337634512,0.0317932383767,-0.0118518522833,5.05629751054,6.897418752
1591962140389622132,152.217070503,1128.16250081,-2.11264240149,0.0231532612759,-0.0138748367324,4.89906369541,6.948954112
1591962140436214034,152.208718702,1128.17441632,-2.11195617451,0.0152382746245,-0.0150245682638,4.74217308148,6.995546112
1591962140490115403,152.196873329,1128.19096494,-2.11131441315,0.00916170219512,-0.0123322219876,4.47657575626,7.049447424
1591962140534615659,152.186709997,1128.20648974,-2.11068663202,0.000587223987506,-0.0134115329863,4.26837182557,7.093947648
1591962140584681728,152.17704822,1128.22123687,-2.11013161698,-0.00758584277061,-0.0142895163646,4.07954858159,7.144013824
1591962140635455434,152.168192274,1128.23565744,-2.10960894548,-0.0145967915134,-0.015570353417,3.89487173881,7.194787584
1591962140686525830,152.156123114,1128.25522968,-2.10914169265,-0.0164149554314,-0.0135973050137,3.59229763362,7.245858048
1591962140733350353,152.145881548,1128.27317737,-2.10870357382,-0.0217166690951,-0.0153857045628,3.36020346305,7.292682496
1591962140786629695,152.137248198,1128.28998407,-2.10831679133,-0.0266201618868,-0.0180489502027,3.15458088995,7.345961728
1591962140835294973,152.125344304,1128.3115994,-2.10798715656,-0.0226268527036,-0.0160196892856,2.84077122373,7.394627072
1591962140885899721,152.115264617,1128.33085595,-2.10768218399,-0.023222075227,-0.0173262534687,2.60515201035,7.445231872
1591962140933446118,152.106240911,1128.3485233,-2.10741728236,-0.0240724119462,-0.0189970787554,2.40010860199,7.49277824
1591962140984226040,152.098382625,1128.3650173,-2.10722600477,-0.023832029929,-0.0207313278103,2.20845982201,7.543558144
1591962141034296151,152.087463777,1128.38694679,-2.1070561185,-0.0136558884745,-0.0184592662971,1.91069879018,7.59362816
1591962141087092434,152.078513801,1128.40636997,-2.10692114119,-0.0111707644464,-0.0196426409239,1.68916899868,7.646424576
1591962141135139544,152.070176142,1128.42416034,-2.10682771451,-0.0105606433754,-0.0202527888902,1.49874187803,7.69447168
1591962141183359746,152.062740785,1128.4405611,-2.10678536407,-0.0103614798182,-0.0207878312838,1.32218932803,7.74269184
1591962141234605928,152.052631278,1128.46225881,-2.10676907908,-0.00196843460439,-0.0175848290276,1.05079614354,7.79393792
1591962141286725488,152.044689153,1128.48134128,-2.10677509925,-0.0010409833417,-0.0185967956861,0.849633412794,7.846057472
1591962141333553850,152.037463271,1128.4984913,-2.10683741066,-0.00153450581996,-0.0193104233681,0.678337887473,7.892886016
1591962141386265250,152.027998201,1128.52030539,-2.10692104568,0.00552193610187,-0.016477757837,0.431381441992,7.94559744
1591962141434061465,152.020452605,1128.53925378,-2.10703339045,0.00436128871389,-0.017185960519,0.251592193529,7.993393664
