%time,field.linear.x,field.linear.y,field.linear.z,field.angular.x,field.angular.y,field.angular.z,secs_since_start
1591961059683580755,152.347038946,1128.68122625,-2.11015169499,0.0499496560809,0.0247393481137,-4.26511318389,0.0
1591961059733891201,152.353223064,1128.69545583,-2.10998011053,0.0373789030569,0.0254128056257,-4.3364298549,0.050310656
1591961059789366223,152.358686064,1128.70794104,-2.10984439826,0.0241653759834,0.0263569886332,-4.390650781,0.1057856
1591961059834776155,152.36635079,1128.72334598,-2.10975056059,0.0088364302474,0.0246242183117,-4.45292302356,0.151195392
1591961059890442144,152.373302432,1128.7362993,-2.10951971354,-0.00882694708665,0.0257151480627,-4.49140826414,0.206861568
1591961059932240895,152.37875094,1128.74640035,-2.10988648187,-0.0209171986272,0.0253405712393,-4.51535254085,0.248660224
1591961059989900559,152.381902885,1128.75200582,-2.10966283525,-0.0421858058973,0.0294884806687,-4.53075133925,0.306319872
1591961060035362947,152.390511245,1128.76523093,-2.11001305792,-0.0477830203145,0.0233503623401,-4.52880007226,0.3517824
1591961060091236439,152.395252562,1128.7722589,-2.11010705798,-0.0659156137717,0.0258528351812,-4.52905413469,0.40765568
1591961060138552538,152.399669544,1128.77896478,-2.11038649681,-0.0769711403371,0.026401106967,-4.5210516846,0.454971904
1591961060191205016,152.40401502,1128.78516528,-2.11060452072,-0.0803760527414,0.0263579437072,-4.50772193947,0.507624448
1591961060237944409,152.408269405,1128.79080769,-2.11087955762,-0.0869452011021,0.0259613641783,-4.48408190848,0.554363648
1591961060291550868,152.415091868,1128.79831561,-2.11121312729,-0.0965670645104,0.0226509247849,-4.42472293052,0.607970304
1591961060338667083,152.420197998,1128.80371564,-2.11160563441,-0.105782121835,0.0230447932648,-4.37120525182,0.655086336
1591961060389885987,152.424855621,1128.80824482,-2.11205791315,-0.112228199984,0.0230511524759,-4.31652351601,0.70630528
1591961060437655111,152.430823602,1128.81290228,-2.11252936472,-0.120417371488,0.0208062153907,-4.2154997869,0.754074368
1591961060492803631,152.435397464,1128.81553119,-2.11308139777,-0.125633284476,0.0207849907055,-4.1328116284,0.809222912
1591961060538098723,152.439730248,1128.81690498,-2.11365951863,-0.127787552365,0.0201271665735,-4.05421159307,0.854518016
1591961060592074904,152.442865842,1128.81737167,-2.11427570891,-0.127265614197,0.02023387474,-3.97489954062,0.908494336
1591961060639431147,152.447448765,1128.81735132,-2.11492468753,-0.123716925717,0.0166636767173,-3.83845236361,0.955850496
1591961060688715392,152.450722639,1128.8160401,-2.11564065669,-0.119818389044,0.0157508246793,-3.73091221183,1.005134592
1591961060733578707,152.453281874,1128.81396599,-2.11638043214,-0.114173243609,0.0149887742882,-3.63228882601,1.04999808
1591961060787018769,152.455443951,1128.81107371,-2.11714181251,-0.106342794296,0.0137065057302,-3.53520028509,1.10343808
1591961060834405330,152.457923244,1128.80656377,-2.11792864129,-0.0911819883851,0.00997790938942,-3.372373233,1.150824704
1591961060886033161,152.459505184,1128.80124956,-2.11876494231,-0.077239414989,0.00797211587325,-3.245966878,1.20245248
1591961060934107805,152.46060817,1128.79550671,-2.11961737901,-0.0632730006634,0.00601396545435,-3.13236135716,1.250527232
1591961060986874350,152.460935857,1128.78941089,-2.12047620328,-0.0496780934113,0.00444845453781,-3.02290328533,1.303293696
1591961061034483201,152.461380684,1128.78033913,-2.12134695139,-0.0326528033984,0.000326256852766,-2.84575232068,1.350902528
1591961061090332215,152.461364393,1128.77135559,-2.12224777034,-0.0170699319789,-0.00228564714544,-2.7108003885,1.406751488
1591961061134406472,152.46112006,1128.7624721,-2.12315286132,-0.00166524390178,-0.00467855523283,-2.59171559945,1.450825728
1591961061185919471,152.460243853,1128.75356933,-2.12404662708,0.0134912473504,-0.00643558269291,-2.47909577734,1.502338816
1591961061234812279,152.459030712,1128.74070463,-2.12493544742,0.0324537244911,-0.0102286246514,-2.30204474029,1.551231488
1591961061285037293,152.457635635,1128.72857891,-2.12583126235,0.0483076514721,-0.0129010538692,-2.16968009057,1.60145664
1591961061335932621,152.456174916,1128.71694735,-2.1267205642,0.0612622655929,-0.0152640230003,-2.05553355652,1.652352
1591961061389816725,152.45418275,1128.70578607,-2.12758164931,0.072091884127,-0.0167242204183,-1.95021228912,1.70623616
1591961061435456728,152.451386288,1128.69000796,-2.12842011671,0.0815859252129,-0.0190411321221,-1.79087804174,1.751876096
1591961061484929845,152.448676647,1128.675586,-2.12924722734,0.0917001868796,-0.0210671474962,-1.67400008336,1.80134912
1591961061534775350,152.446053553,1128.66202842,-2.13004111895,0.0994521431838,-0.0228340539115,-1.57548380238,1.851194624
1591961061586458989,152.441920553,1128.6439236,-2.13080332592,0.100007475189,-0.0237742085218,-1.43525506351,1.902878208
1591961061634860742,152.438524998,1128.62796859,-2.13155189756,0.103511976616,-0.0259444172183,-1.33392144356,1.951280128
1591961061687566371,152.435070022,1128.61338096,-2.13222782641,0.105215547847,-0.027104514251,-1.25002410349,2.003985664
1591961061736209918,152.431577464,1128.59958827,-2.13289895169,0.106652485722,-0.0282066160022,-1.17446196146,2.052629248
1591961061784244223,152.427049981,1128.58052458,-2.13349043894,0.0997152856152,-0.0286817541224,-1.06479930583,2.100663552
1591961061833895418,152.422987071,1128.5639018,-2.13406401345,0.0994511747921,-0.0300347764853,-0.985625768464,2.150314752
1591961061884829558,152.419220045,1128.54895565,-2.13457206872,0.0988992778788,-0.0312522297843,-0.920055804646,2.201248768
1591961061934604844,152.415627939,1128.53481687,-2.13503633223,0.096435360006,-0.032290815783,-0.861255905808,2.251024128
1591961061989794269,152.410565883,1128.51553856,-2.13544403918,0.0840435494176,-0.0318935871723,-0.776169776715,2.306213632
1591961062035267296,152.406802551,1128.49913056,-2.13579076362,0.0807007043955,-0.0335098450009,-0.715600089958,2.351686656
1591961062085091187,152.40327388,1128.48432518,-2.13606369223,0.07824256902,-0.0341230272015,-0.666645391714,2.4015104
1591961062134594831,152.399878507,1128.47070752,-2.13629570731,0.0752199333611,-0.0342290569361,-0.624248579997,2.451014144
1591961062185710638,152.394984834,1128.4519268,-2.13646450335,0.0603387885679,-0.0321677341262,-0.567170327385,2.50212992
1591961062235733998,152.390835986,1128.43630181,-2.13656487359,0.0545567319477,-0.0318753609377,-0.528445956991,2.552153344
1591961062287388614,152.387125186,1128.42238023,-2.13659434681,0.0501344742975,-0.0315764532453,-0.499034421715,2.603808
1591961062334876614,152.38419276,1128.40992662,-2.13658265112,0.0464291317983,-0.0315707678236,-0.47542052005,2.651296
1591961062384201868,152.380129401,1128.39292618,-2.13649999085,0.0336188031014,-0.028555842052,-0.448411730481,2.700621312
1591961062434594426,152.377020314,1128.37901325,-2.13633271697,0.0297606155718,-0.0274194426507,-0.432719451458,2.751013632
1591961062485670640,152.373919882,1128.36689916,-2.13612521503,0.0269376361101,-0.0256917346311,-0.423753043736,2.802089984
1591961062533317040,152.37030513,1128.35139526,-2.13583575447,0.0146566225592,-0.0221223613986,-0.422028506429,2.849736448
1591961062587700898,152.367981975,1128.33895343,-2.1354863561,0.0109886968143,-0.021001093721,-0.426082956908,2.90412032
1591961062634768682,152.365860984,1128.32852695,-2.13508606875,0.00965520346492,-0.019284942768,-0.434753483529,2.951187968
1591961062686285501,152.364378207,1128.31949472,-2.1346348366,0.00900870673679,-0.0178542759028,-0.447531489834,3.002704896
1591961062734026556,152.362194116,1128.30769692,-2.13413844333,0.00378461699678,-0.0136401133761,-0.477867028133,3.050445824
1591961062786725540,152.36120152,1128.29846155,-2.13355703964,0.00448863354143,-0.0118375386721,-0.504766512883,3.10314496
1591961062834388883,152.36034326,1128.29109099,-2.13294740063,0.00643710532775,-0.00951276574246,-0.531987313179,3.15080832
1591961062887586771,152.359550062,1128.28194087,-2.13227602499,0.0055860980078,-0.00555734356236,-0.58134369064,3.204006144
1591961062936686299,152.359312304,1128.27517729,-2.13155384652,0.00890557837993,-0.00294111525767,-0.621651492291,3.253105664
1591961062984520120,152.359375459,1128.26993087,-2.1307931007,0.0128615448078,-0.000486852843032,-0.659865518915,3.30093952
1591961063034304456,152.360124314,1128.2659713,-2.13000802045,0.0168130412614,0.00148157749152,-0.698459867669,3.35072384
1591961063084128706,152.361246255,1128.26104905,-2.12919660836,0.0205595310235,0.00536088224657,-0.764289160927,3.400548096
1591961063133532567,152.362563895,1128.25784135,-2.12833407534,0.0250710555861,0.00845986509375,-0.815579111066,3.449952
1591961063187749536,152.363973398,1128.25595634,-2.12745234861,0.0292098193731,0.0113689486251,-0.861720201865,3.50416896
1591961063234666462,152.365946218,1128.25475632,-2.12656064654,0.0324003307617,0.0136031244895,-0.906158376268,3.551085824
1591961063283982712,152.368746682,1128.2539009,-2.12565446697,0.0361445875622,0.0170028360766,-0.977210225027,3.60040192
1591961063333449567,152.371469084,1128.25407338,-2.12472257791,0.0386175964347,0.0200639415485,-1.03083444162,3.6498688
1591961063383556352,152.374124804,1128.25516701,-2.12378505456,0.0400550865491,0.0228493117641,-1.07758486969,3.69997568
1591961063434380939,152.376717864,1128.25694543,-2.12285180827,0.0404198203742,0.0253201248871,-1.12133278609,3.750800384
1591961063487604591,152.380860276,1128.26001945,-2.12191351843,0.040536040242,0.0274693176966,-1.18925806384,3.804023808
1591961063534500368,152.384741382,1128.26340917,-2.12098688783,0.0389168601791,0.0292465046205,-1.23929341029,3.85091968
1591961063586698245,152.388513415,1128.26735419,-2.12006572631,0.0367881342492,0.0313674516574,-1.28253184988,3.903117568
1591961063635235694,152.392185996,1128.2717592,-2.11915978225,0.034071386249,0.0332356692704,-1.32229765214,3.951654912
1591961063689651421,152.397361755,1128.27848441,-2.11826847322,0.0313774562309,0.0342853122792,-1.38134842173,4.006070784
1591961063734188146,152.401782293,1128.28517094,-2.11739918743,0.0272126925039,0.0363018782888,-1.42359619497,4.05060736
1591961063787754338,152.405765813,1128.2917128,-2.11653942175,0.0222370334657,0.0382541741761,-1.4580248292,4.104173568
1591961063833959103,152.409985716,1128.29827975,-2.11572428975,0.0172895486655,0.0389610444279,-1.48784651499,4.150378496
1591961063886018877,152.415922532,1128.30836647,-2.11493169034,0.0129958202289,0.038666487859,-1.52854573073,4.202438144
1591961063933616301,152.420693191,1128.31738535,-2.11417989216,0.00635449990184,0.0402032421857,-1.55609835692,4.250035712
1591961063986176267,152.42531873,1128.32615847,-2.11345214338,0.000129050917461,0.0410930015984,-1.57686636227,4.302595584
1591961064035172565,152.430893878,1128.33848439,-2.11276171263,-0.00447888635529,0.0409607457685,-1.59908254724,4.351591936
1591961064086727514,152.43593301,1128.34948858,-2.11211391271,-0.0108626897878,0.0413358240783,-1.6056315868,4.403146752
1591961064135940340,152.440129857,1128.35961623,-2.11149933352,-0.0167097422243,0.0421392467527,-1.61463802225,4.45235968
1591961064188603817,152.443815903,1128.36915973,-2.11096018089,-0.0208793546988,0.0422828324765,-1.61606371397,4.505023232
1591961064234714630,152.448804304,1128.38306994,-2.11044560545,-0.0200274469542,0.0403637316226,-1.6060116011,4.551133952
1591961064288321277,152.451353005,1128.39067902,-2.1099547624,-0.0279405635558,0.0415595204125,-1.6001504106,4.604740608
1591961064336457974,152.455676929,1128.40357903,-2.1094991285,-0.0247012711851,0.0391186271671,-1.58856300717,4.652877312
1591961064386153914,152.459365704,1128.41501841,-2.10923532465,-0.0239134843441,0.0374765019927,-1.57231494709,4.702573312
1591961064436704956,152.463305908,1128.43062104,-2.10886773689,-0.0178419941259,0.035460895694,-1.54905795514,4.753124352
1591961064494102171,152.465263609,1128.43920861,-2.10843117756,-0.0249891182041,0.036643261629,-1.50611669302,4.8105216
1591961064541320190,152.465920271,1128.44270266,-2.10872533216,-0.0267731698144,0.035744009517,-1.49203330896,4.85773952
1591961064589588600,152.468213458,1128.45423352,-2.10832132699,-0.0170217517712,0.032003329193,-1.43511551841,4.906007808
1591961064642828239,152.470215404,1128.46481619,-2.10835558397,-0.0104165036499,0.0279093561024,-1.3856927347,4.959247616
1591961064689022508,152.472638207,1128.47950735,-2.10827763968,-0.00346703360053,0.0256415749241,-1.30671256837,5.005441792
1591961064739369028,152.474262972,1128.49206841,-2.10825865421,-0.00241858397976,0.0240853231442,-1.24194159231,5.055788288
1591961064790157497,152.474884505,1128.50274243,-2.1083221197,-0.00316845003867,0.0229315770472,-1.18057832658,5.106576896
1591961064838296336,152.475490051,1128.51732981,-2.10843599261,0.00250163983556,0.0194370340648,-1.07667153042,5.154715648
1591961064885061643,152.475030259,1128.52916882,-2.10859939292,0.0015786622711,0.0173737421239,-0.993741052095,5.20148096
1591961064937417532,152.474507031,1128.53959842,-2.10877379404,-0.000145523939284,0.0145697459452,-0.916508748112,5.2538368
1591961064986033818,152.47345004,1128.54890143,-2.10906239191,-0.00140182493247,0.0122139123981,-0.840382670627,5.302453248
1591961065033705891,152.471568634,1128.56241359,-2.10934551679,0.00213247623958,0.00858745364115,-0.711446907852,5.350125312
1591961065093680942,152.469219293,1128.57305494,-2.1096473095,-0.00122803735737,0.00549508925962,-0.610611074047,5.410100224
1591961065133909192,152.466679963,1128.58228329,-2.11009846823,-0.00449976266246,0.00281951557059,-0.521000553404,5.450328576
1591961065189371006,152.464011917,1128.59071556,-2.11050656903,-0.00769689424389,-0.000136463377792,-0.433790748081,5.505790208
1591961065233798838,152.459185952,1128.60270161,-2.11093848935,-0.0077075804716,-0.00249562313284,-0.292545564737,5.55021824
1591961065283894611,152.454754728,1128.61208603,-2.11142682044,-0.0120814924181,-0.00590249617867,-0.184826987506,5.600313856
1591961065335620503,152.450047961,1128.62020132,-2.11195112596,-0.0162606319476,-0.00874635755712,-0.0897827301807,5.652039936
1591961065386362322,152.445204689,1128.62745548,-2.11248770852,-0.0197055778233,-0.0115222552979,0.000589314799701,5.702781696
1591961065434856720,152.438211541,1128.63779127,-2.11305430483,-0.018973192354,-0.0134977538764,0.144239736481,5.751276032
1591961065484304948,152.431617863,1128.64553652,-2.11364889751,-0.0221673367329,-0.0165347754266,0.25352226318,5.800724224
1591961065533101279,152.425276201,1128.65203113,-2.11426177785,-0.0253029625593,-0.0196693655943,0.349542289013,5.84952064
1591961065588000830,152.419113843,1128.65766229,-2.11489199469,-0.0278977516095,-0.0225585239447,0.440191850592,5.904420096
1591961065635652601,152.409377633,1128.66569671,-2.11553486336,-0.0277932592979,-0.0227282679396,0.581543972502,5.952071936
1591961065687385126,152.401348889,1128.67172594,-2.11618012661,-0.0300081493484,-0.0266700361865,0.687389237782,6.003804416
1591961065735960826,152.39322289,1128.67662379,-2.11683358742,-0.0313043457747,-0.0298344698989,0.779308652375,6.05238016
1591961065785701936,152.385730861,1128.6806605,-2.11752295139,-0.0305146338299,-0.0323869274935,0.864442398115,6.102121216
1591961065836301633,152.374798102,1128.68624285,-2.11818917649,-0.0275837276245,-0.0325771776453,0.99738103165,6.152720896
1591961065884463641,152.365165036,1128.69005087,-2.11884973824,-0.0281248877051,-0.0357049415766,1.09620788511,6.200882944
1591961065933991381,152.356288319,1128.69307949,-2.11951613969,-0.0284916594587,-0.0390378618612,1.1805911591,6.250410752
1591961065990432246,152.344188482,1128.69671194,-2.12018799607,-0.0247393542181,-0.0388593035389,1.30263535357,6.306851584
1591961066035550037,152.333450188,1128.69905746,-2.12084090656,-0.0223197317102,-0.0416329793913,1.39204532224,6.35196928
1591961066085288891,152.324078424,1128.70040278,-2.1214917116,-0.0196287809804,-0.0447816595455,1.46760367337,6.401708288
1591961066135612473,152.315470766,1128.70129313,-2.12213466947,-0.0169982787293,-0.0472958027624,1.53673371584,6.452031744
1591961066184846363,152.303100315,1128.70223005,-2.12276522791,-0.013558649985,-0.0449526325367,1.63945831773,6.501265664
1591961066234241258,152.292830503,1128.70230753,-2.12335801812,-0.012316593447,-0.0472566101273,1.71386211595,6.550660608
1591961066288629703,152.283793068,1128.70184908,-2.12394266917,-0.0109013551125,-0.0495506183353,1.77524016901,6.605049088
1591961066334222638,152.274938198,1128.70094363,-2.12451288876,-0.00879030921673,-0.050235608534,1.82959364023,6.65064192
1591961066387059957,152.263042768,1128.69960889,-2.12505820701,-0.00377426593543,-0.0464737617168,1.90687854404,6.703479296
1591961066435562527,152.253136313,1128.69767901,-2.12555883856,-0.00096057809663,-0.0471724314908,1.96171510369,6.751981824
1591961066485137825,152.244910193,1128.69535577,-2.12603958297,0.000293296352648,-0.0487038650896,2.00616889371,6.801557248
1591961066540757798,152.23707761,1128.69266223,-2.12651192713,0.000570190765398,-0.0489977859416,2.04481330508,6.857177088
1591961066584528201,152.22632738,1128.68888141,-2.1269542147,0.00132552560936,-0.0445047143771,2.09753681618,6.900947456
1591961066630066836,152.217632241,1128.68488658,-2.12734690528,0.00298904846937,-0.0445083939489,2.13387273754,6.946486272
1591961066687532088,152.210648067,1128.68089852,-2.12772009718,0.00515444024134,-0.0452391335481,2.16217417999,7.00395136
1591961066733626711,152.201451443,1128.6750835,-2.1280872714,0.00648329047941,-0.040590322931,2.19693348754,7.050045952
1591961066785901549,152.194202342,1128.66965712,-2.12839298486,0.00845085603611,-0.0397830372373,2.2195695921,7.102320896
1591961066834467301,152.188559432,1128.66431216,-2.12868227721,0.00908142974251,-0.0398514620899,2.23565127012,7.150886656
1591961066884194226,152.183282608,1128.65909328,-2.12895065598,0.00835141213432,-0.0386386245103,2.24721309735,7.200613632
1591961066933750131,152.177129959,1128.65138221,-2.12919748698,0.0019959062301,-0.0348288898651,2.25611174884,7.250169344
1591961066988318723,152.172571109,1128.64437995,-2.12943332075,0.000200469142645,-0.0338861878269,2.25862134747,7.304738048
1591961067033504256,152.168993363,1128.63799157,-2.12955211087,-0.000424310768498,-0.0324791675593,2.2566246351,7.349923584
1591961067086224178,152.1658638,1128.63158946,-2.1297164996,-0.000757664176597,-0.0305372535788,2.25066568828,7.402643456
1591961067134266248,152.162986895,1128.62219459,-2.12984937217,-0.00622298611194,-0.0268035552827,2.23165905108,7.450685696
1591961067184088326,152.160745772,1128.61379779,-2.12994988428,-0.00792314482291,-0.0243637049886,2.21342762768,7.500507648
1591961067234177237,152.159365879,1128.60600962,-2.13001667796,-0.00914759513378,-0.0226985430013,2.19395138383,7.550596608
1591961067286980283,152.158977534,1128.59834443,-2.13007065669,-0.010314460624,-0.0212909137553,2.17251293674,7.60339968
1591961067334723835,152.159141013,1128.58721592,-2.13011444213,-0.0147735116875,-0.0174630519282,2.13189714107,7.651143168
1591961067387128334,152.160127795,1128.5775925,-2.13011545211,-0.013179121023,-0.0147463113525,2.0985199577,7.703547648
1591961067433476453,152.161545389,1128.56856879,-2.13008946668,-0.0103436001137,-0.0120076215532,2.06690505265,7.74989568
1591961067483547447,152.164221616,1128.55585561,-2.13004816018,-0.0105477156549,-0.00868185677661,2.01445943558,7.79996672
1591961067533625157,152.167044146,1128.54496964,-2.12999211549,-0.00668163292414,-0.0056065372882,1.97392245491,7.850044416
1591961067587435289,152.170443845,1128.53509311,-2.12991291046,-0.00262601301175,-0.0031832611739,1.93742185414,7.903854592
1591961067635078487,152.174145756,1128.52554206,-2.12982164029,0.000957327080577,-0.000598542487603,1.90170743007,7.951497728
