%time,field.linear.x,field.linear.y,field.linear.z,field.angular.x,field.angular.y,field.angular.z,secs_since_start
1590675564669064016,153.006415173,1128.32156006,-2.13360537537,-0.0404985608851,-0.0112731280515,2.57369959996,0.0
1590675564714366356,153.002013146,1128.32803058,-2.13338722502,-0.0322282159258,-0.0117036356371,2.60636955977,0.045302528
1590675564767738747,152.996968084,1128.33471762,-2.13313124741,-0.0275842535914,-0.010905801772,2.64126191834,0.098674688
1590675564817910749,152.991591339,1128.34106365,-2.13281612957,-0.0202654663118,-0.00974811270848,2.67347332942,0.148846848
1590675564870193941,152.983344503,1128.35039321,-2.13249758262,-0.0048377367294,-0.00573306245645,2.71813525383,0.201129984
1590675564914885007,152.975687086,1128.35773606,-2.13205145245,0.00137036469383,-0.00462584883602,2.74826287659,0.245821184
1590675564957846912,152.968870025,1128.36363974,-2.1315816651,0.00465307750885,-0.00493331788561,2.77101997083,0.288783104
1590675565006747241,152.961996321,1128.36857708,-2.13110954356,0.00726408301344,-0.00462591275434,2.78903936246,0.3376832
1590675565068497389,152.951939618,1128.37491243,-2.13060211968,0.0141656375181,-3.21263665567e-05,2.80947639373,0.399433472
1590675565111451241,152.942732492,1128.37945196,-2.13002888618,0.0154651613483,0.000767909874248,2.82176530211,0.4423872
1590675565159673398,152.934597204,1128.38280842,-2.12940836599,0.01460990018,0.000262623934494,2.82937954067,0.490609408
1590675565211438304,152.926513214,1128.38510182,-2.12879059018,0.0129500076676,0.000548707755073,2.83359829478,0.5423744
1590675565275148143,152.915309225,1128.38756398,-2.12814754913,0.0119785506558,0.00555753176952,2.83333367135,0.606084096
1590675565316920103,152.90551928,1128.38877219,-2.12744937972,0.00905572354943,0.00606351211487,2.83023825689,0.647856128
1590675565369295030,152.896566817,1128.38932779,-2.12674041675,0.00576905882705,0.00587774176343,2.82451241938,0.700231168
1590675565422431234,152.884250402,1128.38884457,-2.12605388653,0.00116416695776,0.0108498651081,2.80802629981,0.753367296
1590675565460142847,152.873599004,1128.3879304,-2.12526369723,-0.0030807937927,0.011503048283,2.79269407803,0.791078912
1590675565518399073,152.864023828,1128.38650323,-2.1245329535,-0.00592347989865,0.0105698706842,2.77563383021,0.84933504
1590675565566112083,152.854730937,1128.38463026,-2.1238113578,-0.00878079411624,0.010562791287,2.75633829015,0.897048064
1590675565615893785,152.841374306,1128.38072679,-2.12309724113,-0.0123248565747,0.0154888185608,2.71612067527,0.946829824
1590675565657794461,152.830904348,1128.37731038,-2.12234617338,-0.0154827651617,0.0155760381455,2.68458873084,0.988730624
1590675565729926690,152.82057254,1128.37361329,-2.1216365996,-0.0150546956155,0.014628610006,2.65089280675,1.06086272
1590675565764061333,152.810851946,1128.36975665,-2.12095689797,-0.0141370988223,0.0137793293034,2.61583483036,1.094997504
1590675565810251362,152.797227244,1128.36324595,-2.1202995419,-0.0135086628731,0.0182787642409,2.55211379133,1.141187328
1590675565859727247,152.785157383,1128.35760253,-2.11964481906,-0.00995328681283,0.0176910914786,2.50069218798,1.190663424
1590675565911087833,152.774410414,1128.35212361,-2.11902096917,-0.00562956933891,0.0156086040165,2.45197353733,1.242023936
1590675565966802396,152.759718038,1128.34418994,-2.11844668128,-0.000416596440642,0.0192610332022,2.37053136793,1.297738496
1590675566010653977,152.746994064,1128.33721353,-2.1178792621,0.00611879693693,0.0174441490647,2.30624984287,1.341590016
1590675566062326977,152.735420083,1128.33095851,-2.11737025946,0.0129312516798,0.0149481659047,2.2473376287,1.393263104
1590675566111646734,152.724508326,1128.32487172,-2.11691570707,0.019095238583,0.0130168910026,2.18922601434,1.442582784
1590675566169621483,152.709188536,1128.31581912,-2.11650060236,0.0258771808892,0.0168638608208,2.09189018531,1.500557568
1590675566209741834,152.696213071,1128.30824035,-2.11612390068,0.0329777594338,0.0146612563494,2.01643231062,1.540677888
1590675566263201919,152.684469064,1128.30133185,-2.11578806728,0.039723173943,0.0116917600048,1.94808682202,1.594137856
1590675566312334481,152.672962349,1128.29505415,-2.11551686251,0.0453911600934,0.00994883956389,1.8818943259,1.643270656
1590675566361998700,152.656849532,1128.28561155,-2.11530328126,0.0490487185268,0.0137917421444,1.77437624257,1.692934656
1590675566408985719,152.642863459,1128.27794814,-2.11510999791,0.0539248174259,0.0114608032346,1.69207857154,1.739921664
1590675566460981266,152.630095881,1128.27140248,-2.11498162174,0.0577933116096,0.00826551107739,1.61929310483,1.791917312
1590675566509289549,152.612764661,1128.26239797,-2.11492619465,0.0574649573968,0.0108437408821,1.50850988022,1.840225536
1590675566558010336,152.598100931,1128.25530694,-2.11489385884,0.0588407712653,0.00704792942806,1.42549782329,1.888946432
1590675566609031878,152.585008361,1128.24916876,-2.11494179296,0.0589137361165,0.00267853908179,1.35382255821,1.939968
1590675566660524841,152.572799525,1128.24373705,-2.11504700887,0.0579052426505,-0.000902603046364,1.2870344042,1.991460864
1590675566708868901,152.555285782,1128.23631989,-2.11520480558,0.0525252212027,0.00175180335965,1.18418325627,2.039804928
1590675566759256528,152.540074168,1128.23060636,-2.11538682965,0.0502193105665,-0.00172718430821,1.10757615398,2.09019264
1590675566808668382,152.526677607,1128.22592479,-2.11562110676,0.0480455182335,-0.00663192410231,1.04154413113,2.13960448
1590675566855857777,152.508573769,1128.21990029,-2.11593160671,0.0409980160638,-0.00550040014197,0.944753442159,2.186793728
1590675566908047734,152.498841277,1128.2169398,-2.11625049628,0.0408187781935,-0.015208755091,0.908133991361,2.23898368
1590675566966101563,152.488083719,1128.21463901,-2.11663412975,0.0382339912463,-0.0180807370719,0.859770096904,2.297037568
1590675567019575240,152.476734959,1128.21212498,-2.11700957124,0.0336794273264,-0.0192076868747,0.807679978602,2.35051136
1590675567081926834,152.459262554,1128.20867778,-2.11743462957,0.0259007450822,-0.0147184148747,0.723230793194,2.412862976
1590675567124710238,152.444120515,1128.20647815,-2.11785059924,0.0215125789816,-0.0175137622018,0.660406229883,2.455646208
1590675567165052065,152.430345945,1128.20483723,-2.11831424089,0.0175291555198,-0.0213121236735,0.607114235049,2.495988224
1590675567211152167,152.417291219,1128.20390301,-2.11880683269,0.0140029743784,-0.0247828814926,0.558505118442,2.542088192
1590675567263424968,152.398886301,1128.20285048,-2.11933440665,0.00855487508276,-0.022305052989,0.486888397578,2.594361088
1590675567313700328,152.383234746,1128.2027877,-2.11985677387,0.00560719898105,-0.0264117351137,0.434878291732,2.644636416
1590675567362124049,152.369185415,1128.20337709,-2.12041790971,0.00334873585295,-0.0309870469916,0.391747853811,2.693060096
1590675567412113064,152.356061202,1128.20425346,-2.1210040112,0.000993793055999,-0.0346022442365,0.353435613573,2.743049216
1590675567462359340,152.338207561,1128.20594158,-2.12158439499,-0.000161112079423,-0.0325259769883,0.299379368927,2.79329536
1590675567513910284,152.322923176,1128.20837985,-2.12217754132,-0.00039851966656,-0.0362090486949,0.261215584682,2.844846336
1590675567563404132,152.309108476,1128.21089481,-2.12278820938,-0.00131379411727,-0.0402742474528,0.230613555082,2.894340096
1590675567611146264,152.29674604,1128.21383593,-2.12339827987,-0.00201020264867,-0.0436845427071,0.20448390721,2.942082304
1590675567664998582,152.27930109,1128.21840961,-2.12401510373,-0.000622279482225,-0.0407110268552,0.169992272159,2.99593472
1590675567715031729,152.264841654,1128.22272537,-2.12459256671,-0.000801100942086,-0.0440483477417,0.146810556169,3.045967872
1590675567770194559,152.252060493,1128.22728198,-2.12518014704,-0.00106748821191,-0.0477394744869,0.129469863816,3.101130496
1590675567810721007,152.24027117,1128.23189903,-2.12575936013,-0.00174083353516,-0.0501925002665,0.115887986094,3.141657088
1590675567857265001,152.224273005,1128.23886711,-2.1263232809,0.000735094910007,-0.0469675210713,0.101348127995,3.18820096
1590675567912833053,152.210626819,1128.24525056,-2.12684267064,0.000469633117489,-0.0490986444785,0.0931780378657,3.243769088
1590675567957627924,152.198860011,1128.25146625,-2.1273521681,-0.000380189169707,-0.0521136183732,0.088869582715,3.288563968
1590675568008533955,152.18389169,1128.26016656,-2.12786363814,0.000566081864868,-0.0498747432552,0.0889014938381,3.33947008
1590675568063219556,152.172001676,1128.26799955,-2.1282829871,-0.00126588945954,-0.0522080904851,0.091356234432,3.39415552
1590675568110929051,152.161682831,1128.27518048,-2.12873132765,-0.0042348982713,-0.0548110421915,0.0959109116413,3.441865216
1590675568158264685,152.152381244,1128.28209705,-2.12912450551,-0.0067280548548,-0.055718569885,0.102241433091,3.48920064
1590675568207892995,152.139885867,1128.29242587,-2.12949084056,-0.00655206765406,-0.0512916512564,0.116876438913,3.538829056
1590675568259339947,152.129795816,1128.30130086,-2.12979282083,-0.0101456770032,-0.0519454867675,0.129672172283,3.590276096
1590675568308343885,152.121605657,1128.30955648,-2.13006316984,-0.0138617506378,-0.0533708104583,0.142575552861,3.639279872
1590675568358116113,152.113954663,1128.31743545,-2.13030456367,-0.0172558471625,-0.0531220689943,0.156344024312,3.68905216
1590675568408993233,152.104486449,1128.32885294,-2.13049628547,-0.0181254429787,-0.0491126137435,0.181702695975,3.739929344
1590675568464625822,152.097132724,1128.33864312,-2.13062474118,-0.0228022534766,-0.0490938637375,0.202122921557,3.795561984
1590675568523911320,152.090962414,1128.34750871,-2.13072137734,-0.0276733460854,-0.0491640718744,0.22124078031,3.854847488
1590675568569395544,152.085960748,1128.35586062,-2.13080003843,-0.0321640079882,-0.0491679141372,0.240420397509,3.90033152
1590675568606708012,152.079564236,1128.36779791,-2.13076830245,-0.0334443220717,-0.0449387203526,0.272968525005,3.937644032
1590675568654725071,152.07491291,1128.37780964,-2.13072574527,-0.0391509069083,-0.0440300470938,0.298509657717,3.985661184
1590675568706164620,152.071262028,1128.38668656,-2.13063532893,-0.0445728909857,-0.0430443985829,0.321667433558,4.0371008
1590675568762138166,152.067617151,1128.39873729,-2.13051329676,-0.0466628906056,-0.0397150746068,0.358983141438,4.093074176
1590675568817065834,152.065016413,1128.40869301,-2.13032941745,-0.0513765571946,-0.0376139882693,0.38787099484,4.148001792
1590675568864177004,152.063515168,1128.41746863,-2.13009107771,-0.0548531565784,-0.0358712255509,0.414031438132,4.19511296
1590675568906018467,152.063134978,1128.42534154,-2.12981286023,-0.0567562424125,-0.0341516499627,0.439687131482,4.236954624
1590675568956267391,152.063362101,1128.43651383,-2.12950946991,-0.0525360359314,-0.0300352604734,0.482993636621,4.287203328
1590675569006414934,152.063907595,1128.44564288,-2.12914961405,-0.0519385219489,-0.0262532307493,0.516712081075,4.337350912
1590675569068197309,152.065129349,1128.45343128,-2.12875320709,-0.0511190657543,-0.0230691660652,0.547255494761,4.39913344
1590675569122320056,152.067232546,1128.46046908,-2.12832874467,-0.0488777470652,-0.0203651151864,0.576956366837,4.453256192
1590675569160842745,152.070859175,1128.47037935,-2.12786683553,-0.0388824000811,-0.0167770126378,0.625292897379,4.491778816
1590675569211461097,152.074797956,1128.47826617,-2.12737091378,-0.0342480161244,-0.0131848276842,0.661863492655,4.542397184
1590675569263921955,152.078863994,1128.48505484,-2.12684038029,-0.0301402496332,-0.00966917962529,0.693586635071,4.594857984
1590675569308007281,152.08561247,1128.49363009,-2.12628060312,-0.0208008604284,-0.00751457300124,0.740127376933,4.638943232
1590675569355694975,152.092261663,1128.50053493,-2.12569930864,-0.0167583046768,-0.00419892564335,0.773719520645,4.686630912
1590675569405446889,152.098825027,1128.5061229,-2.12510001878,-0.0144716063548,-0.000578381439765,0.801596327338,4.736382976
1590675569456462871,152.105274912,1128.51099219,-2.12448109394,-0.0124436417215,0.00277277127504,0.826442776244,4.787398912
1590675569513954508,152.115359648,1128.5176445,-2.12384707481,-0.00750340802078,0.00349061418498,0.862371692902,4.844890624
1590675569569021342,152.124773547,1128.52261876,-2.12320536496,-0.00689791828688,0.0065116973784,0.887699584465,4.899957504
1590675569616525373,152.13379908,1128.5267397,-2.12255139887,-0.00701183344529,0.0100308608249,0.908154995234,4.947461376
1590675569657055663,152.142501711,1128.53015868,-2.1218917827,-0.00743689348997,0.0129432489611,0.925781590201,4.987991808
1590675569717675014,152.155805423,1128.53466359,-2.12122421679,-0.00732913240352,0.0119373889121,0.949829706667,5.048611072
1590675569764248664,152.167946626,1128.53810113,-2.12057283567,-0.00925793717165,0.0147913840191,0.966074322896,5.09518464
1590675569806794700,152.178984757,1128.54078787,-2.1198939671,-0.0115751639849,0.0195928788046,0.978663104203,5.137730816
1590675569856460150,152.194225726,1128.54348189,-2.11925056864,-0.0145542780641,0.0175604319934,0.993849351052,5.187396096
1590675569907528417,152.208022942,1128.54533291,-2.11859684052,-0.0177065333851,0.021285917632,1.00380668152,5.238464512
1590675569956476665,152.220796204,1128.54672567,-2.11794042373,-0.0199832210382,0.0252515419008,1.01113958128,5.287412736
1590675570009723305,152.232431334,1128.5476577,-2.11728738509,-0.0212516996396,0.0292880961839,1.01722810072,5.340659456
1590675570065700654,152.249716093,1128.54811276,-2.1166407818,-0.0208015881822,0.0272309154276,1.02670737116,5.396636672
1590675570115486757,152.264373985,1128.54805842,-2.11603619275,-0.0192680714205,0.0313307407352,1.03458478858,5.446422784
1590675570164555237,152.278131316,1128.54773693,-2.11540065995,-0.0168803441856,0.0358945838179,1.04274934833,5.495491328
1590675570206848944,152.290440694,1128.54706186,-2.11488347861,-0.013807368509,0.0383563624368,1.05181967721,5.537785088
1590675570256833812,152.308660564,1128.54546484,-2.11430577481,-0.00849290240806,0.0361242915183,1.07079477277,5.587769856
1590675570310739082,152.324303316,1128.54353948,-2.1137719868,-0.00377350559993,0.0398280753165,1.0870617167,5.641675264
1590675570357459707,152.338372453,1128.54123942,-2.11327084992,0.000437985569489,0.0435216667092,1.10316054851,5.688395776
1590675570409774742,152.345759338,1128.53979442,-2.11280724105,0.00336069776704,0.0514059560159,1.10899822056,5.740710912
1590675570463180013,152.360973677,1128.5365803,-2.11230859919,0.00745761838335,0.0462875179775,1.13422603911,5.794116096
1590675570511231797,152.374788178,1128.53347423,-2.11187915816,0.0115791530205,0.0461854967485,1.15644629126,5.842167808
1590675570559991127,152.387807666,1128.53015309,-2.11152262229,0.0150708899825,0.0471014939513,1.17849108983,5.890927104
1590675570610313822,152.400345704,1128.52642594,-2.11119684861,0.0177152424376,0.0476668899219,1.20142301296,5.941249792
1590675570670438933,152.418435999,1128.52082484,-2.11088961316,0.0186359325496,0.0421400055518,1.24246274926,6.001374976
1590675570711279009,152.434082122,1128.51541588,-2.11052857205,0.0207970821821,0.0445294712268,1.27587956764,6.042215168
1590675570756262049,152.447036704,1128.51046802,-2.11050128474,0.0207374576756,0.0451575563437,1.30612313786,6.087198208
1590675570805660333,152.459775668,1128.50529548,-2.11024434899,0.0212771702415,0.0466518161484,1.33777767609,6.13659648
1590675570867191925,152.477407564,1128.49797835,-2.11002651199,0.0173731899726,0.0415846212923,1.39293196566,6.198127872
1590675570920979279,152.49198004,1128.49123835,-2.10989340266,0.0157995961492,0.0430958786994,1.43682043271,6.251915264
1590675570969096240,152.504823884,1128.48466959,-2.10976851837,0.0145771063733,0.0452038482509,1.47755801819,6.300032256
1590675571006729186,152.521344709,1128.4759254,-2.10971015292,0.00922086264652,0.0410773278714,1.5444544088,6.33766528
1590675571074016790,152.535329729,1128.46788287,-2.1096603822,0.00705548175116,0.0425151377536,1.59698136457,6.404952832
1590675571107636847,152.547258693,1128.46062781,-2.10964894262,0.00600288139476,0.0446596702388,1.64465857127,6.4385728
1590675571155582465,152.558030155,1128.45362548,-2.10965854455,0.00481992160934,0.0457940648105,1.69133716666,6.486518528
1590675571205450782,152.572404647,1128.44393114,-2.10967909507,-0.000634409111129,0.0413366073367,1.76919075825,6.536386816
1590675571264644664,152.584074776,1128.43538836,-2.10975908545,-0.00206897703138,0.042222402419,1.82950002963,6.595580672
1590675571313203271,152.593658633,1128.42763767,-2.10986753017,-0.00247247543804,0.0438709286015,1.88355408621,6.644139264
1590675571364941085,152.602579669,1128.42016202,-2.11000741708,-0.00299339564214,0.0437866638937,1.93559595381,6.69587712
1590675571415765287,152.614328168,1128.41000557,-2.11017110725,-0.00671010487949,0.0388708531887,2.02051448587,6.746701312
1590675571464872678,152.623461787,1128.40123076,-2.11040011604,-0.00614471027417,0.0388673217027,2.08565708005,6.795808768
1590675571512233034,152.63114918,1128.39310442,-2.11062410549,-0.0050797934063,0.0391279319958,2.14376466897,6.843169024
1590675571560167915,152.64063028,1128.38259539,-2.1108923329,-0.00704238392702,0.0348493113136,2.23336754744,6.891104
1590675571606516925,152.648011043,1128.3733623,-2.11119828661,-0.00516720802413,0.034221106508,2.30110415721,6.937453056
1590675571656568914,152.653679995,1128.36523575,-2.11151586242,-0.00240546733755,0.034254281584,2.36052011603,6.987504896
1590675571707129057,152.658413526,1128.35753472,-2.11182120548,-0.000306375039294,0.033602559286,2.41690888011,7.038065152
1590675571756620841,152.664151199,1128.34738839,-2.11221848991,-0.00162021354358,0.0297124042787,2.50519505704,7.087556864
1590675571807336873,152.668457107,1128.33862439,-2.11260288226,0.000754436120059,0.0285298570409,2.57207779855,7.138273024
1590675571858490545,152.67193883,1128.33083626,-2.11301198824,0.0036975291736,0.0275628262747,2.63035092709,7.189426688
1590675571909648017,152.67445221,1128.32365459,-2.11343325078,0.00640950624941,0.0269045430277,2.68521037065,7.240584192
1590675571968988755,152.676439357,1128.31448012,-2.11387331506,0.00746741218484,0.0254053880977,2.77128110223,7.299924736
1590675572018497339,152.67763735,1128.30658631,-2.11433390292,0.0107439110366,0.0243310818876,2.83581372576,7.349433344
1590675572061088074,152.677879442,1128.29958647,-2.11482469083,0.0140459318446,0.0236607883224,2.89151529064,7.392024064
1590675572109383573,152.677612045,1128.29336226,-2.11531842479,0.0172607560105,0.0225692404966,2.94347218697,7.440319744
1590675572166376916,152.676022116,1128.2852143,-2.11581732686,0.0193334421229,0.0216236743712,3.02387277348,7.497313024
1590675572212278043,152.674252088,1128.27843091,-2.11634078303,0.0231092704299,0.0198188321561,3.08356191987,7.54321408
1590675572255803725,152.671885749,1128.2727903,-2.11688495678,0.0271277213234,0.0183058753669,3.13476272494,7.586739712
1590675572315274243,152.667077909,1128.26567988,-2.11743159127,0.0304727582507,0.0180487499416,3.21056280708,7.646210304
1590675572365508901,152.66252383,1128.25997405,-2.11799104475,0.0345108354239,0.0156911192121,3.26630852269,7.696444928
1590675572410726319,152.657606575,1128.25516872,-2.11856387193,0.0379135262436,0.013401948003,3.31395143238,7.741662464
1590675572457491226,152.652549412,1128.25117633,-2.11914784194,0.040502068385,0.0111631786864,3.3576821811,7.788427264
1590675572516246161,152.644219905,1128.24643356,-2.11973412151,0.0422437689581,0.0112622184985,3.42426926122,7.847182336
1590675572570659572,152.636237554,1128.24280885,-2.12032057747,0.0435846738293,0.00895719671925,3.4727597409,7.901595648
1590675572609071927,152.628479424,1128.23991312,-2.12091506871,0.0437911247831,0.00613648527168,3.51334293287,7.940007936
1590675572675249774,152.62087604,1128.23746348,-2.12151406083,0.0432490677816,0.00345181828584,3.54991244559,8.006185728
