%time,field.linear.x,field.linear.y,field.linear.z,field.angular.x,field.angular.y,field.angular.z,secs_since_start
1591012528069649206,152.529361498,1128.08327589,-2.1218563171,-0.0106950594351,0.00222126863217,0.111374853334,0.0
1591012528116203716,152.533902663,1128.08079817,-2.12199270219,-0.021210389702,0.00538282046827,0.103643808828,0.046554624
1591012528171335575,152.538295201,1128.07870073,-2.12209850313,-0.0306046495728,0.00756852278851,0.0969498980578,0.101686528
1591012528226521689,152.54421661,1128.07584294,-2.12218670104,-0.0461987424944,0.00907256920816,0.0877710457272,0.156872448
1591012528276588839,152.549382698,1128.07352908,-2.12225619074,-0.0550028944195,0.0117258490433,0.0814475278581,0.206939648
1591012528317461289,152.553631063,1128.07146995,-2.12230606871,-0.0614055321225,0.0150502962159,0.0764096563995,0.247812096
1591012528366952084,152.55734565,1128.06977569,-2.12233273286,-0.065571214655,0.0179391634491,0.0720938152247,0.29730304
1591012528416633677,152.562885398,1128.06731333,-2.12234282344,-0.0709992521574,0.0193260498913,0.0659801881492,0.346984448
1591012528467793025,152.567347343,1128.06512182,-2.12234399053,-0.0720970926977,0.0221870691114,0.0615080378762,0.398144
1591012528517804725,152.571187869,1128.06329857,-2.12232496993,-0.0704209571327,0.0246974222728,0.0575892072054,0.448155648
1591012528566598055,152.575736192,1128.06095033,-2.12229032898,-0.065547069918,0.0263856502193,0.051246908267,0.496948992
1591012528616649758,152.579634162,1128.05900898,-2.12224523594,-0.059281552982,0.0282231731275,0.0461759516183,0.547000576
1591012528668755619,152.582626199,1128.05728882,-2.12218844261,-0.0522124298391,0.0301363928801,0.041433300541,0.59910656
1591012528717684709,152.585108754,1128.05568433,-2.12212207579,-0.0446227220843,0.0314321361514,0.0366301385176,0.648035584
1591012528766671067,152.588887098,1128.05319139,-2.12204946637,-0.0326122751491,0.0309116626464,0.0283187367151,0.697021952
1591012528816155664,152.591821267,1128.05114853,-2.12198078757,-0.0218087058649,0.0317807739886,0.0216979741463,0.746506496
1591012528866750489,152.593747452,1128.04935791,-2.1219053938,-0.0117495976468,0.033219182306,0.0155641941463,0.797101312
1591012528917461080,152.595632056,1128.0474746,-2.1218229985,-0.00245617728024,0.0335931479265,0.0131533295402,0.84781184
1591012528979220469,152.596443332,1128.04646081,-2.12174657136,0.0128974005155,0.035526496882,0.00835224012747,0.909571328
1591012529031544394,152.597699808,1128.04454494,-2.12165949701,0.0169392545079,0.0346699048559,-0.00133279461556,0.961895168
1591012529082335161,152.598701123,1128.04261243,-2.12159027831,0.0286072124433,0.034995696929,-0.00945690363458,1.01268608
1591012529121293956,152.59955298,1128.0408737,-2.12152783392,0.0372920236093,0.0347960820555,-0.0169992873698,1.051644928
1591012529168103109,152.60033438,1128.03907971,-2.12147108625,0.0394222308413,0.0339447778075,-0.0242624881428,1.098454016
1591012529217987672,152.600562185,1128.03649966,-2.12142866443,0.0467917214425,0.0341801341482,-0.0371544075763,1.148338432
1591012529276741234,152.600480457,1128.03446098,-2.12139221966,0.0526948653618,0.0340194374713,-0.0475207594375,1.207091968
1591012529332774250,152.6002286,1128.0324337,-2.12136528754,0.0568235005658,0.0334880526234,-0.0572214011033,1.263124992
1591012529383700640,152.598834808,1128.02977663,-2.12135230255,0.0596164733653,0.0335927291978,-0.0734081620345,1.314051584
1591012529425162184,152.597322647,1128.02755532,-2.12135792325,0.0609625272745,0.032750133159,-0.0863215305494,1.355513088
1591012529474957770,152.595768609,1128.02576584,-2.12138214964,0.060808217837,0.0313451522308,-0.0982321612694,1.405308672
1591012529521976230,152.593666557,1128.02421079,-2.12142672411,0.0595387498486,0.0302592657259,-0.110120975198,1.452327168
1591012529573362993,152.591265007,1128.02255608,-2.12148712257,0.0568174138194,0.0288116592202,-0.122291382261,1.503713792
1591012529622097620,152.587651564,1128.02014366,-2.12156899201,0.049275885358,0.027142897415,-0.1433142573,1.552448512
1591012529668337284,152.583897453,1128.01831084,-2.12167483325,0.0432361033854,0.0248647249388,-0.160003261426,1.598688256
1591012529718697499,152.580077776,1128.01677942,-2.12180430209,0.0371739227147,0.022223995822,-0.175368422923,1.64904832
1591012529770351240,152.574087655,1128.01469429,-2.12196453573,0.0256825679909,0.020262446428,-0.200323749442,1.700702208
1591012529824483410,152.568582317,1128.01310772,-2.12213730264,0.0170879491065,0.0169895039334,-0.219474659418,1.754834176
1591012529869459462,152.563248627,1128.01172527,-2.12234587273,0.00919121746188,0.0132260129694,-0.236996724722,1.799810304
1591012529921701691,152.557565854,1128.01046571,-2.1225753577,0.00147210193931,0.0102412267859,-0.254048329797,1.85205248
1591012529969748163,152.549067841,1128.0088013,-2.12282240617,-0.01156725022,0.00870142461909,-0.282369440912,1.900099072
1591012530025427610,152.541610719,1128.00744546,-2.12308673693,-0.0203720289541,0.00445207549861,-0.304502100076,1.95577856
1591012530075912211,152.534253534,1128.00645538,-2.12337892053,-0.0270326264278,0.000625179731998,-0.324523760504,2.00626304
1591012530121241869,152.526970083,1128.00565126,-2.12368980687,-0.0327131980125,-0.00295234742062,-0.34399599223,2.051592704
1591012530171679511,152.516093895,1128.00423656,-2.12401008375,-0.0410106200188,-0.00364982058075,-0.375549806884,2.102030336
1591012530223085905,152.506113403,1128.00322427,-2.12438615961,-0.0465048173962,-0.00871691912494,-0.399964022865,2.153436672
1591012530276786739,152.497347253,1128.00245108,-2.12466483742,-0.0463613855279,-0.0113171296869,-0.420278177067,2.207137536
1591012530325159520,152.488624005,1128.00170816,-2.12503763362,-0.0477884643076,-0.0155837233863,-0.439805618266,2.255510272
1591012530369546220,152.475462489,1128.00076027,-2.12540844792,-0.0475040665766,-0.0152764202054,-0.468601456786,2.299897088
1591012530420629253,152.464023474,1127.99997269,-2.12576073487,-0.0453687843455,-0.0192734503214,-0.48917562426,2.350980096
1591012530468605523,152.453559853,1127.99921674,-2.12613510224,-0.0423669994689,-0.0237788574055,-0.50583950784,2.398956288
1591012530518705695,152.443713873,1127.99845154,-2.12651234357,-0.0385264772936,-0.0275085696204,-0.520069609608,2.449056512
1591012530571105634,152.428965298,1127.99742295,-2.12688602021,-0.0313735943976,-0.0257463175424,-0.538244028258,2.501456384
1591012530626351240,152.416194015,1127.99648906,-2.12723545909,-0.0248775669867,-0.0292837249521,-0.549783316595,2.556702208
1591012530686082715,152.403719517,1127.9955095,-2.12788435094,-0.0193881710568,-0.0384658763684,-0.557776917506,2.616433664
1591012530723317883,152.389564377,1127.99443118,-2.12775342917,-0.00919137732925,-0.0291998013589,-0.563177911921,2.653668608
1591012530767503249,152.375742051,1127.99330816,-2.1281238904,-0.00121435451898,-0.0334263430356,-0.564375304917,2.697854208
1591012530818091536,152.363624689,1127.99219704,-2.12847034956,0.00543833476305,-0.0379744500406,-0.562497568018,2.748442368
1591012530867955476,152.352529908,1127.99107736,-2.12879638765,0.0110862855039,-0.0413967360448,-0.557960030467,2.798306304
1591012530918075747,152.336768068,1127.98946795,-2.12909414021,0.0168567363132,-0.0385952568587,-0.544487052172,2.848426496
1591012530980912656,152.323653196,1127.98799846,-2.1293356733,0.0201959754257,-0.0416821297884,-0.531838477574,2.911263488
1591012531027569264,152.312094746,1127.98638812,-2.12955714548,0.0212964026596,-0.044896035476,-0.518665012059,2.95792
1591012531077186184,152.301458195,1127.98494182,-2.12974832982,0.0209727871231,-0.0468722758668,-0.504655248156,3.007537152
1591012531124723180,152.286977186,1127.98285864,-2.12997000643,0.0170628077162,-0.0445047894077,-0.47935522829,3.055074048
1591012531177495569,152.27540253,1127.98086476,-2.13002522187,0.0133042267726,-0.0460713847412,-0.459385413076,3.1078464
1591012531224619158,152.264619634,1127.97914689,-2.13016028134,0.00962285869888,-0.0482233161172,-0.440691548267,3.154970112
1591012531279485095,152.254980896,1127.97738445,-2.13024755669,0.00501534937334,-0.0497001902539,-0.422263718518,3.209836032
1591012531321397470,152.242256803,1127.97488433,-2.13031199962,-0.00436204749073,-0.0464153676247,-0.39136528801,3.251748352
1591012531366715548,152.232070624,1127.97261807,-2.13029121039,-0.0107450021259,-0.0474236916882,-0.367240667944,3.297066496
1591012531416295693,152.223227362,1127.97026922,-2.13028964024,-0.0167487049758,-0.0487395881553,-0.345249631301,3.346646528
1591012531480619467,152.215187796,1127.96813695,-2.13026169786,-0.0221821108905,-0.0488826023651,-0.323787860423,3.410970368
1591012531527522502,152.204953451,1127.96494786,-2.13020109389,-0.0324608289872,-0.044511151826,-0.288375661466,3.457873408
1591012531574235149,152.196666227,1127.96203523,-2.13006644184,-0.0384902314797,-0.0436560493491,-0.260930290036,3.504585984
1591012531620224149,152.18996967,1127.95931547,-2.12992088231,-0.0430528280224,-0.0435589570051,-0.236209791074,3.550575104
1591012531668289545,152.181549967,1127.95555099,-2.12973648248,-0.0510127659196,-0.0386037993181,-0.197861880759,3.598640384
1591012531717219995,152.175265658,1127.95203598,-2.129522853,-0.0552032298053,-0.0376491891856,-0.168720244954,3.647570944
1591012531779464669,152.17020514,1127.94872972,-2.12928175008,-0.0574841767783,-0.0366976852176,-0.143248176768,3.709815552
1591012531825990725,152.166330055,1127.94555538,-2.1290296089,-0.0590578425659,-0.0356970434791,-0.119297762414,3.756341504
1591012531869421216,152.161546048,1127.9410706,-2.12872734301,-0.0625340220521,-0.0308015791549,-0.0826019767806,3.79977216
1591012531920108735,152.158320314,1127.93693593,-2.12838128807,-0.0627358985836,-0.028657904715,-0.0554416493131,3.850459648
1591012531967667855,152.156485255,1127.93306089,-2.12801715998,-0.0614443037054,-0.0270800052145,-0.0324498878797,3.898018816
1591012532018831821,152.154880515,1127.92935862,-2.12764251087,-0.0593050937518,-0.0242457158504,-0.0114611962774,3.94918272
1591012532070160882,152.153902059,1127.92387147,-2.12724071019,-0.0573457038009,-0.0198759930027,0.0196058770621,4.000511744
1591012532118202574,152.153780723,1127.91898411,-2.12679200247,-0.053190517935,-0.0167462296395,0.0420773154228,4.048553472
1591012532171469417,152.154108833,1127.91424681,-2.12632959873,-0.0486891622786,-0.0135805482714,0.0606839744863,4.10182016
1591012532223293612,152.155708516,1127.90774563,-2.12584066364,-0.0429658193911,-0.00958513410188,0.0860962919554,4.153644544
1591012532276231807,152.157471077,1127.90185122,-2.12532746962,-0.0361845179356,-0.00561934323312,0.104043389282,4.206582528
1591012532323869349,152.159812532,1127.89638055,-2.12479386726,-0.0292900167177,-0.00230247737883,0.118432034878,4.254220288
1591012532370388660,152.162984677,1127.89116346,-2.12425842958,-0.0226080498418,0.00052669668605,0.130792737,4.300739584
1591012532422681234,152.167634717,1127.88375986,-2.1237139776,-0.0149316431293,0.00424213553813,0.147320821957,4.353032192
1591012532481216758,152.17256246,1127.87744953,-2.12315517396,-0.00637896641938,0.00767553692573,0.158766934891,4.411567616
1591012532523608426,152.177614292,1127.8713258,-2.12259269831,0.00118058854515,0.0110655815129,0.167758247606,4.453959168
1591012532575849523,152.182679236,1127.8655973,-2.12203259392,0.00808621246156,0.0141663760004,0.175393518281,4.50620032
1591012532622099513,152.190398204,1127.85721858,-2.12147000461,0.0152658097504,0.0160729281584,0.18585418516,4.552450304
1591012532672185716,152.197409898,1127.84999688,-2.12091800956,0.0226495798552,0.019214346253,0.193354587862,4.602536448
1591012532726070398,152.204570953,1127.84316489,-2.12036378215,0.0294818001474,0.0220410608584,0.19974273713,4.65642112
1591012532770686257,152.211203423,1127.83662611,-2.11982579556,0.0348718525613,0.0249292284307,0.205744969265,4.701037056
1591012532815928681,152.221214424,1127.82741088,-2.11929581458,0.0388900935736,0.0247528060072,0.215651721477,4.746279424
1591012532867376125,152.230484075,1127.81925095,-2.11878862002,0.0437007849477,0.0270650888601,0.223507994137,4.797726976
1591012532917204465,152.239283531,1127.81197221,-2.11829301549,0.047793655704,0.0295746679538,0.230711363794,4.847555328
1591012532978055258,152.244090619,1127.80809422,-2.11781592527,0.0544369302697,0.0372030894621,0.242457003527,4.908406016
1591012533027779888,152.257874199,1127.79642022,-2.11724890587,0.0477895747339,0.0308126118861,0.251564864972,4.958130688
1591012533077136336,152.269472739,1127.78687875,-2.11685743517,0.0454371892013,0.0308884397667,0.254752417997,5.007487232
1591012533124789796,152.279982456,1127.77867976,-2.11647816744,0.0442838033825,0.0327918164055,0.265173188796,5.055140608
1591012533179057949,152.293490848,1127.76770558,-2.11612567697,0.0351595470565,0.0307696282677,0.268453452333,5.109408768
1591012533226929891,152.300645238,1127.76193585,-2.11585516212,0.0335126705809,0.0365460237489,0.278025155727,5.157280768
1591012533276467643,152.309282004,1127.75547487,-2.11546791296,0.0291058538724,0.0381668043132,0.285186201887,5.20681856
1591012533327119103,152.31794525,1127.74887186,-2.11515765603,0.0226864583309,0.0381103247041,0.290851258913,5.257469952
1591012533376312379,152.326651836,1127.74216751,-2.11489714558,0.019385635966,0.0370295037414,0.29589930684,5.306663168
1591012533417857108,152.340172953,1127.73181951,-2.11466198356,0.00580628462197,0.0316587153298,0.301066440045,5.348207872
1591012533467547129,152.351615512,1127.72300056,-2.11449964795,-0.00137293600616,0.0322577889849,0.303815823716,5.397897984
1591012533517578663,152.362382181,1127.71507102,-2.11435615716,-0.00698111398808,0.0330029362552,0.30506156739,5.4479296
1591012533578120877,152.376465731,1127.70432531,-2.11422380277,-0.0196605925158,0.0291067355316,0.304061995574,5.508471808
1591012533624820428,152.388705492,1127.69532043,-2.11414039107,-0.0251860721625,0.0294869491095,0.301970287218,5.555171328
1591012533676510533,152.39925318,1127.68762147,-2.11411489424,-0.0281234538404,0.0303345326774,0.298908402169,5.606861312
1591012533723350198,152.408937439,1127.68034589,-2.11407747378,-0.0305993839463,0.0305987474747,0.294947052143,5.65370112
1591012533777970753,152.422417208,1127.67041447,-2.11402399721,-0.0360630953291,0.0246082512047,0.287050733392,5.708321536
1591012533827697043,152.433520601,1127.66205877,-2.11414648455,-0.0349636789168,0.0233015954931,0.281120028592,5.758048
1591012533866702802,152.442994612,1127.65462055,-2.1142255515,-0.0319877396457,0.023496210987,0.276227858218,5.797053696
1591012533916418879,152.452051218,1127.64794458,-2.11429507447,-0.0281235755327,0.0225157723251,0.272268762938,5.846769664
1591012533975047371,152.464017068,1127.63839867,-2.1143934316,-0.0252048495203,0.0160842474343,0.268523143918,5.905398272
1591012534023384878,152.473921597,1127.63054434,-2.11455916226,-0.0190113510995,0.0148127168178,0.266887155087,5.95373568
1591012534073107309,152.482131387,1127.62364301,-2.11473941135,-0.0125727748271,0.0147773010623,0.266692900556,6.003458048
1591012534122436103,152.493095929,1127.61442296,-2.11492594142,-0.00642558793575,0.00883305270299,0.269383820769,6.052786944
1591012534174766564,152.501917065,1127.6067189,-2.11516772151,0.00109439639206,0.00789510191172,0.272704948687,6.10511744
1591012534223411136,152.509577081,1127.60007537,-2.11539393315,0.00820950577964,0.00754864491836,0.276833834835,6.153762048
1591012534272323819,152.516528168,1127.59408851,-2.11564548674,0.0140383285009,0.00666830087365,0.281863790817,6.202674688
1591012534322516395,152.525250124,1127.58582195,-2.11589683829,0.0188661532307,0.00168823458994,0.292561927469,6.252867328
1591012534379515581,152.532343639,1127.57906607,-2.1161829517,0.0247417116922,0.000516727318613,0.301917443253,6.309866496
1591012534422179510,152.538662325,1127.57280903,-2.11640150798,0.0304240854193,-0.000298333142929,0.311590912994,6.352530432
1591012534466254580,152.543586125,1127.56775349,-2.116813832,0.0321606472902,-0.000450047792992,0.32136072629,6.39660544
1591012534517295399,152.550848868,1127.56054439,-2.11707228937,0.0336046058314,-0.00565331104242,0.34054344213,6.447646208
1591012534578585422,152.556664008,1127.55456705,-2.11737550828,0.0358143461456,-0.00693712673981,0.356429710644,6.508936192
1591012534625774889,152.561131253,1127.54932465,-2.11768496875,0.0370798523897,-0.00693240317032,0.371728024224,6.556125696
1591012534666658025,152.565385502,1127.54473389,-2.11798584705,0.0372471546163,-0.00788489723001,0.387454181475,6.597008896
1591012534715762756,152.570598409,1127.53884834,-2.11828632203,0.0332558631081,-0.0114503213421,0.41535638528,6.646113536
1591012534770836477,152.57480616,1127.53402561,-2.1185932769,0.0311104540257,-0.0125310045172,0.437821072471,6.701187328
1591012534826117827,152.578454574,1127.52984074,-2.11889080146,0.0288009936013,-0.0131925089596,0.458735419784,6.756468736
1591012534876076948,152.581274168,1127.52626031,-2.11917784067,0.0258337078609,-0.013344248256,0.479567985533,6.806427904
1591012534917813651,152.585213018,1127.52161817,-2.11946082736,0.0172333008565,-0.0162341173383,0.514582600164,6.848164608
1591012534966351310,152.58824755,1127.5179126,-2.1197411533,0.011726922147,-0.016813115773,0.542018281134,6.896702208
1591012535020888625,152.590792357,1127.51476509,-2.12000013249,0.00698445975987,-0.0170295885224,0.566939493136,6.951239424
1591012535071529732,152.593609636,1127.51123091,-2.12024122144,-0.00201238508859,-0.0183166699126,0.606491182652,7.001880576
1591012535124938769,152.5960488,1127.50836192,-2.12048074747,-0.00795005057361,-0.0183491758457,0.636672850863,7.0552896
1591012535178956220,152.597776959,1127.50612711,-2.12069807327,-0.0127567627834,-0.0176000033027,0.663697455957,7.109307136
1591012535220519673,152.599116085,1127.50425689,-2.12089266367,-0.0170359359956,-0.0168772737885,0.689788719667,7.150870528
1591012535274024011,152.601312971,1127.50234538,-2.12106747244,-0.0239183409907,-0.0174250695782,0.732493434947,7.204374784
1591012535323438986,152.602955882,1127.50077572,-2.12123152338,-0.0282614665368,-0.0165884827969,0.765463311555,7.253789952
1591012535371042386,152.604288485,1127.49967977,-2.12137499221,-0.0310498305877,-0.0154893733194,0.794952050434,7.301393152
1591012535423312094,152.605468763,1127.49884591,-2.12149594097,-0.0333227682348,-0.0145639775428,0.823586520119,7.353662976
1591012535476266258,152.606564053,1127.49839036,-2.12159798524,-0.0353615554343,-0.0132192873848,0.870062510376,7.406617088
1591012535521437372,152.607633005,1127.49802141,-2.12167648738,-0.0364480692962,-0.0121608831051,0.905799997717,7.451788288
1591012535569228173,152.608693501,1127.49774944,-2.12173654412,-0.036850174509,-0.0111576376151,0.93763596412,7.499579136
1591012535618338928,152.609753738,1127.49824771,-2.12177724599,-0.0349560265243,-0.00938649991993,0.986801479699,7.548689664
1591012535667573928,152.610828932,1127.49858869,-2.12179335697,-0.0333695190142,-0.00789326793259,1.02412024518,7.597924864
1591012535718658464,152.611384607,1127.49913249,-2.12179148222,-0.0311306823657,-0.00581002241967,1.05697301793,7.649009408
1591012535772438655,152.612176079,1127.49980169,-2.12177067575,-0.0284161378868,-0.00439078591183,1.08810961083,7.702789376
1591012535827704546,152.613109672,1127.50148672,-2.12173488905,-0.0220773848516,-0.00187212453663,1.13760172555,7.758055424
1591012535877221305,152.613593114,1127.50289901,-2.12167824053,-0.0177637087622,0.000758888491555,1.17482207764,7.807572224
1591012535922909635,152.614359829,1127.50423455,-2.12160387668,-0.0140730370211,0.0026076318698,1.20760380673,7.853260544
1591012535977576511,152.614745642,1127.50575352,-2.12152413964,-0.0100238994629,0.00487850716517,1.23816313956,7.907927296
1591012536022251550,152.615456179,1127.50835011,-2.12143037744,-0.00234857357827,0.00800785166015,1.2863357375,7.952602368
