%time,field.linear.x,field.linear.y,field.linear.z,field.angular.x,field.angular.y,field.angular.z,secs_since_start
1591961322385318787,152.43698956,1128.36353702,-2.11374879617,0.0666146744209,-0.00784298962719,-3.23974086256,0.0
1591961322436186292,152.43590305,1128.37464786,-2.11352873668,0.0680993730121,-0.00867665088257,-3.30343602464,0.050867456
1591961322488202327,152.434755004,1128.38508054,-2.11333867514,0.0680073729617,-0.00944708501146,-3.3553167897,0.102883328
1591961322533894690,152.433574254,1128.39505979,-2.11315902774,0.0675172306597,-0.0102178149306,-3.40087497214,0.148575744
1591961322585938171,152.431862477,1128.40894189,-2.11301259722,0.0716164252276,-0.0104973331675,-3.46404482428,0.200619264
1591961322634371797,152.429857512,1128.42113691,-2.11286887098,0.0698883735972,-0.0109563398,-3.50737456548,0.249052928
1591961322683472345,152.428216002,1128.43220867,-2.11274813918,0.0670225860856,-0.0122006441807,-3.54022783813,0.298153472
1591961322736057230,152.426786406,1128.44279775,-2.11265129374,0.0642379474118,-0.0134043885523,-3.56585239392,0.350738432
1591961322786294227,152.424436063,1128.45755266,-2.11257294134,0.063456627346,-0.0132428483939,-3.59195182019,0.40097536
1591961322835024950,152.422104694,1128.47041127,-2.11250141147,0.0573209932813,-0.0136963218839,-3.60514763679,0.449705984
1591961322885224558,152.420321573,1128.48207666,-2.11245401496,0.0500767475425,-0.0147987273545,-3.61035479784,0.499905536
1591961322933587310,152.418325041,1128.49300817,-2.11242449134,0.0435524916492,-0.0151198664382,-3.6090151288,0.548268288
1591961322986648447,152.415687952,1128.50820458,-2.11240289554,0.0397519507659,-0.0144691200681,-3.59098241196,0.601329408
1591961323033742498,152.413219675,1128.52098766,-2.11238577614,0.0315623777414,-0.014643798228,-3.56968618658,0.64842368
1591961323088734070,152.411388231,1128.5325817,-2.1123932072,0.022767832667,-0.0153938155385,-3.54370302481,0.70341504
1591961323134810757,152.408871251,1128.54821549,-2.1124139962,0.0140373953081,-0.0142564622419,-3.4871837185,0.749491968
1591961323186594076,152.406492293,1128.56098372,-2.11244172719,0.00193940924061,-0.0139105620071,-3.43772952783,0.801275136
1591961323235795812,152.404724813,1128.57239766,-2.11247685609,-0.00920595478529,-0.0142353633653,-3.38769979826,0.8504768
1591961323283679016,152.402780312,1128.58300529,-2.11253518011,-0.0189218483348,-0.0137440743745,-3.33433264169,0.898360064
1591961323333522414,152.400210215,1128.59785499,-2.11260816717,-0.0277566606075,-0.011929400403,-3.23532759435,0.94820352
1591961323387068216,152.398328886,1128.60987577,-2.11268625078,-0.0390545931819,-0.0118908822043,-3.1542151188,1.001749248
1591961323433459903,152.396846118,1128.6206361,-2.11277397096,-0.0488914961554,-0.011918712989,-3.07697870539,1.048141056
1591961323483924248,152.395066893,1128.63044169,-2.11288115779,-0.0571873690856,-0.0110369169097,-2.99863078308,1.098605312
1591961323533458713,152.393120162,1128.64441857,-2.11300387386,-0.063400254728,-0.00941226236887,-2.86294112639,1.148139776
1591961323584876814,152.391582081,1128.65571196,-2.11312894837,-0.0715588836619,-0.00905506843616,-2.75531528471,1.199557888
1591961323635862402,152.390282931,1128.66562103,-2.1132735462,-0.0776342562856,-0.00880603719097,-2.65628326716,1.250543616
1591961323687949951,152.389650562,1128.67454138,-2.11343641702,-0.0813247188964,-0.00897526306169,-2.5583937662,1.302630912
1591961323733586287,152.388343052,1128.68740252,-2.11361216435,-0.0789162164452,-0.00688458541442,-2.39327124227,1.348267264
1591961323784789421,152.387692612,1128.69758163,-2.11379648175,-0.0797748610264,-0.00640071175543,-2.26421300239,1.399470592
1591961323834322713,152.386888577,1128.70623784,-2.11398550007,-0.0802490233084,-0.0054517583134,-2.14718309937,1.449003776
1591961323886180689,152.386523286,1128.7180861,-2.11419700089,-0.0726171729428,-0.00438969658731,-1.96239080544,1.500861696
1591961323933301249,152.386386192,1128.72709173,-2.11441992066,-0.0696281309956,-0.00376606644905,-1.82096269175,1.547982336
1591961323988363270,152.3863846,1128.73450844,-2.1146536779,-0.0660169907677,-0.00305673744705,-1.69521671386,1.603044352
1591961324033434406,152.386458055,1128.74108912,-2.11491211104,-0.0603003032958,-0.00220185419783,-1.57515183392,1.648115456
1591961324085023339,152.386568975,1128.75057547,-2.11517563825,-0.0456893122688,-0.000484889118985,-1.38199572796,1.69970432
1591961324135713407,152.387207286,1128.75748761,-2.1154494796,-0.0384411676582,6.83198644051e-05,-1.23505959847,1.750394368
1591961324183353430,152.387615203,1128.76322929,-2.11573944094,-0.0321285154652,0.0011926046862,-1.10561207805,1.798034432
1591961324233872728,152.388417491,1128.76819343,-2.11603642368,-0.0256136077336,0.0018165998157,-0.982556801232,1.848553728
1591961324288299558,152.389966891,1128.77513191,-2.11635340104,-0.012676002697,0.00272152472764,-0.786478150805,1.902980608
1591961324334601292,152.390869079,1128.77993815,-2.11668467804,-0.00656579034484,0.00467216559431,-0.637211977311,1.949282304
1591961324386361836,152.39193185,1128.78360389,-2.1170149863,-0.001840065977,0.0060416495397,-0.505199149835,2.001042944
1591961324433544446,152.393594402,1128.78646862,-2.11737517783,0.00218181137724,0.00651498216947,-0.380588065425,2.048225536
1591961324486639153,152.395076367,1128.78899184,-2.11772663441,0.00401458287385,0.0069488851995,-0.334095536618,2.101320192
1591961324535290867,152.396981254,1128.79323547,-2.11808167203,0.0117160529545,0.00928963266763,-0.088367496343,2.149971968
1591961324591049237,152.398059068,1128.79520349,-2.11845437701,0.0133368523373,0.0122608689441,0.00511935677777,2.205730304
1591961324639650395,152.399633283,1128.79520897,-2.11887816753,0.0121528359016,0.0133430299163,0.111607614359,2.254331392
1591961324687389722,152.402105173,1128.79656109,-2.11927597042,0.0141351042296,0.0137644974278,0.304529617097,2.302070784
1591961324737290853,152.403975481,1128.79675167,-2.11970156124,0.0124371557743,0.0151179743085,0.451414414695,2.35197184
1591961324793609500,152.406066763,1128.79635133,-2.12011599579,0.0117674821503,0.0154130864145,0.582930048406,2.40829056
1591961324838313726,152.407714518,1128.79574055,-2.1205334151,0.00959639266467,0.0164417373909,0.706099308326,2.452994816
1591961324889846238,152.410693804,1128.79557822,-2.12095725837,0.00556060089491,0.0164249486955,0.900298508547,2.50452736
1591961324939063919,152.412858382,1128.7933456,-2.12138696193,-0.000540807732743,0.0179614560902,1.04610529888,2.553744896
1591961324990485358,152.415066465,1128.79074682,-2.12181579284,-0.0052649768943,0.0187944715887,1.17253362252,2.605166336
1591961325038499440,152.417286978,1128.78785788,-2.12224425832,-0.00956408500125,0.0192787557097,1.29045773261,2.653180416
1591961325094011768,152.420042064,1128.78416621,-2.12268335018,-0.0170120298433,0.0195133474203,1.4737470746,2.708692736
1591961325138898708,152.42257174,1128.77990606,-2.12313307754,-0.02215699878,0.0200056105105,1.61063743646,2.753579776
1591961325188849299,152.424435614,1128.77538962,-2.12358435192,-0.0263869352059,0.0210252957898,1.72876284504,2.803530496
1591961325236272497,152.426444973,1128.77087252,-2.12403004368,-0.0303554497766,0.0211005282344,1.83866971542,2.850953472
1591961325292989113,152.429054228,1128.76454601,-2.12447622568,-0.0376266377176,0.0203911516728,2.00714830172,2.907670272
1591961325338301772,152.431490135,1128.75802419,-2.12494043864,-0.0407166458747,0.0201486154221,2.13198359476,2.952982784
1591961325387757975,152.43328429,1128.75168822,-2.12539898422,-0.0411857702329,0.0204782432016,2.23826160839,3.002439168
1591961325436685523,152.4357663,1128.74298591,-2.12585340815,-0.043084313077,0.0193434598757,2.39244889335,3.051366656
1591961325484128243,152.437589557,1128.73482881,-2.12630804165,-0.0413267221919,0.0192127833225,2.50528032278,3.098809344
1591961325534130444,152.439031427,1128.7270058,-2.12675513616,-0.038226100887,0.0190120016707,2.60123858378,3.14881152
1591961325588106903,152.440252796,1128.71925007,-2.12719536109,-0.0339810541772,0.0185028800688,2.68967982318,3.202788096
1591961325633688262,152.441342243,1128.70853275,-2.12762503454,-0.0277049030573,0.0174643187437,2.82416589711,3.248369408
1591961325683509647,152.442370007,1128.69875277,-2.1280359907,-0.0188007180287,0.0162051697941,2.92330734287,3.298190848
1591961325734599061,152.442831995,1128.68924717,-2.12844346671,-0.00968931243712,0.0155527138114,3.00801357417,3.349280256
1591961325786964593,152.443501436,1128.68025234,-2.12883601578,-0.000403024024342,0.0140894239284,3.08614247429,3.401645568
1591961325833209596,152.443757144,1128.66787805,-2.12919534356,0.00882231282146,0.0127499573228,3.20517655717,3.447890688
1591961325889000618,152.44379867,1128.65663665,-2.12955235262,0.0192999067147,0.0114836726629,3.29336090102,3.503681792
1591961325934856927,152.443718952,1128.64624962,-2.12989457295,0.0300201496481,0.0101838046751,3.36841238626,3.549538048
1591961325986225909,152.443043452,1128.63222155,-2.13020168131,0.0412139504591,0.00917630897532,3.47533945863,3.600907008
1591961326035240798,152.442576646,1128.61996654,-2.13048762915,0.0525252882639,0.00741993528211,3.55214177603,3.649921792
1591961326085286039,152.441696955,1128.60894448,-2.13074789263,0.0619575081516,0.00623511917934,3.61551643056,3.699967232
1591961326134970522,152.440585685,1128.59873015,-2.13098049664,0.0689616423471,0.00505133206898,3.67185329969,3.749651712
1591961326188729636,152.438295218,1128.58478944,-2.13118043793,0.0725926935218,0.00479265132967,3.75172201266,3.803410688
1591961326234412790,152.436415636,1128.57261242,-2.13135497999,0.0784710820497,0.00306288735371,3.80736947042,3.849093888
1591961326286757568,152.434249539,1128.56187056,-2.13149246202,0.0837697478275,0.00182609881375,3.85088888024,3.90143872
1591961326333539883,152.432450055,1128.55177432,-2.13160949516,0.0866229453095,-7.71326700488e-06,3.88671343143,3.948220928
1591961326383676429,152.4292835,1128.53813031,-2.13168266803,0.0812312036601,-0.000210293161092,3.92897766687,3.998357504
1591961326433839503,152.42587867,1128.52669631,-2.13172335137,0.0790686894543,-0.00115677892869,3.95395151761,4.048520704
1591961326487578729,152.422857541,1128.51657547,-2.13177220125,0.0771685742613,-0.00311758468972,3.96874400689,4.102259712
1591961326534349269,152.418545243,1128.50369654,-2.13168474833,0.0667998918145,-0.00315200286231,3.97354206243,4.1490304
1591961326588821621,152.416091425,1128.49691576,-2.13163315288,0.0695424341524,-0.00625548735168,3.97531419186,4.203502592
1591961326636362151,152.411560501,1128.48612495,-2.13155003217,0.058988202411,-0.00570590811441,3.95871369126,4.251043328
1591961326684743177,152.406911906,1128.47719395,-2.13141712379,0.0527415640212,-0.00629852172291,3.93731756422,4.299424256
1591961326733132729,152.401148762,1128.4660351,-2.13124886595,0.0385620015892,-0.00645954608378,3.88547684789,4.347813888
1591961326790607119,152.395750563,1128.45748254,-2.13111301536,0.0322084898731,-0.0084902380331,3.83650405506,4.405288192
1591961326833637862,152.39077675,1128.45049159,-2.13075866446,0.0260322207989,-0.0097494645917,3.78555660349,4.448318976
1591961326886184497,152.386396445,1128.4445278,-2.13051392943,0.020488510238,-0.0119870750542,3.72709455448,4.500865536
1591961326934590631,152.379783137,1128.43668246,-2.13023504177,0.00979321700722,-0.0111293725331,3.61367474604,4.549271808
1591961326987275372,152.373497131,1128.43093563,-2.12989063537,0.00555623518141,-0.0119791142897,3.51923911678,4.601956352
1591961327035182351,152.367935588,1128.4264637,-2.12952614078,0.00272744268785,-0.0137949968442,3.42821753455,4.649863424
1591961327086835781,152.360700554,1128.42103328,-2.12913085913,-0.00411756914007,-0.0132336946518,3.27080165196,4.7015168
1591961327134396449,152.354095856,1128.41756841,-2.12869125987,-0.0070191171139,-0.0143152559839,3.14300684228,4.749077504
1591961327183865530,152.348409709,1128.41525995,-2.1282299004,-0.0100045514706,-0.0160261567638,3.02103458641,4.798546688
1591961327234523775,152.342734591,1128.41378121,-2.1277555482,-0.0124529433736,-0.0166629612149,2.89615456215,4.849204736
1591961327286009204,152.334895124,1128.41202182,-2.12728457781,-0.0158814726526,-0.0148663264432,2.84211137867,4.900690176
1591961327334555808,152.328689749,1128.41088129,-2.12670438944,-0.0168910442463,-0.0157111882312,2.56264599766,4.949236992
1591961327389807722,152.323123269,1128.41158701,-2.12618704219,-0.0167322944819,-0.0173068016963,2.4510588174,5.004488704
1591961327437402916,152.320419816,1128.41238516,-2.12557540923,-0.0177822095481,-0.0196888638128,2.31035566758,5.052083968
1591961327489834512,152.314303237,1128.41398264,-2.12502750271,-0.017950008277,-0.0161906519651,2.05123599578,5.104515584
1591961327539068293,152.308407849,1128.41676409,-2.12445255674,-0.0173829216577,-0.0148512293577,1.83865513152,5.153749504
1591961327592314431,152.303229637,1128.41988747,-2.12386654281,-0.0163565832752,-0.0146385258439,1.64046819786,5.206995456
1591961327639646484,152.298429717,1128.42332383,-2.1232898623,-0.0145296316571,-0.0145783390142,1.44254896102,5.254327552
1591961327692351097,152.291765786,1128.4278295,-2.12271100701,-0.00904814152516,-0.0116987040025,1.10990741067,5.307032064
1591961327742347611,152.286141319,1128.43323667,-2.12211028901,-0.00412188694653,-0.011504052846,0.849997467364,5.357028608
1591961327787606865,152.281134614,1128.43891678,-2.12151844872,0.000330504276291,-0.0116473717512,0.614927359592,5.402287872
1591961327838578670,152.276483418,1128.44480775,-2.12093887436,0.00497589870542,-0.0115791786785,0.386278105622,5.453259776
1591961327887940468,152.27045923,1128.45238963,-2.12036594647,0.0157034555124,-0.00945241470182,0.0123984655244,5.50262144
1591961327935658607,152.265759316,1128.46034783,-2.11978129113,0.0230492000247,-0.00999402310715,-0.274728706416,5.550339584
1591961327988587330,152.261305939,1128.46842792,-2.11921937698,0.0289096865013,-0.0100453551303,-0.529171426592,5.603268352
1591961328035123524,152.255936521,1128.47824141,-2.11866826294,0.0405287931229,-0.00855679502301,-0.920540805591,5.649804544
1591961328092348655,152.252178587,1128.48814106,-2.11812164032,0.0478325483204,-0.00963498158153,-1.21618850547,5.70702976
1591961328134546618,152.248800491,1128.4974978,-2.11760126194,0.0525995429288,-0.0101076527588,-1.47552100989,5.749227776
1591961328183754867,152.246163283,1128.50629738,-2.11710393628,0.0562404879328,-0.0107535231058,-1.72040779842,5.79843584
1591961328233909820,152.242361546,1128.51748183,-2.11663535369,0.0646414231171,-0.00914713698565,-2.1046473697,5.848590848
1591961328285272052,152.240032773,1128.52821398,-2.1161770812,0.0678420799219,-0.0100736899269,-2.39312602826,5.899953152
1591961328334503250,152.23798805,1128.53835601,-2.11574289624,0.0683100669188,-0.0104379465265,-2.64375328094,5.949184256
1591961328383836429,152.236099903,1128.54787355,-2.11535087844,0.0669038612177,-0.0103961599779,-2.87736012824,5.998517504
1591961328435715075,152.234285327,1128.55977682,-2.1149764869,0.0668654864632,-0.00989905784567,-3.23873679243,6.05039616
1591961328484724247,152.233078763,1128.5709006,-2.11463570903,0.0630858196752,-0.0100940644136,-3.50695619031,6.099405312
1591961328535453204,152.232179713,1128.58124942,-2.11433018857,0.0574173781709,-0.0101482681203,-3.73617978893,6.150134272
1591961328589133759,152.231959255,1128.59069143,-2.11405001376,0.0498995060494,-0.0105696264366,-3.94746685094,6.203814912
1591961328634352592,152.231579995,1128.60231969,-2.11381004906,0.0390680421568,-0.00962062871686,-4.26693889233,6.249033728
1591961328684212288,152.231674865,1128.61322784,-2.11359641114,0.0282493531562,-0.00926507689141,-4.50237299012,6.298893312
1591961328734268449,152.231995786,1128.62294481,-2.11343041063,0.0173780680652,-0.00873476614555,-4.70152336829,6.348949504
1591961328787412906,152.232420428,1128.63202822,-2.11328306549,0.00735860358626,-0.00787223481501,-4.88317551753,6.40209408
1591961328834717095,152.233407855,1128.64273388,-2.11318022004,-0.00554761844891,-0.00655512252378,-5.15004335187,6.449398272
1591961328887844300,152.234744245,1128.65251008,-2.11311430878,-0.0175782474117,-0.00555846705655,-5.34218371995,6.50252544
1591961328934797153,152.23622869,1128.66108262,-2.11308143033,-0.0298839165255,-0.00441755365257,-5.50093393612,6.549478144
1591961328985350433,152.238297853,1128.6711418,-2.11307956745,-0.0458570624588,-0.00244273380201,-5.72065338376,6.600031488
1591961329036691205,152.240195231,1128.67979591,-2.11311363474,-0.0580419000634,-0.000341546455922,-5.87646517585,6.651372288
1591961329083474541,152.242464077,1128.68722228,-2.11319938473,-0.066745632091,0.001102008845,-6.00257865739,6.69815552
1591961329133412012,152.244390835,1128.69381311,-2.11330042555,-0.0735667784985,0.00320957605914,-6.11217179988,6.748093184
1591961329187853586,152.247144661,1128.70122821,-2.11344117001,-0.0817556919235,0.00525751983885,-6.26117965717,6.802534656
1591961329234233355,152.249848449,1128.70746072,-2.11362403237,-0.0877868561251,0.00706196248165,-6.36357556008,6.848914432
1591961329286750906,152.252488772,1128.71276744,-2.11382726742,-0.0922319188371,0.00881072280235,-6.44376379792,6.901432064
1591961329334811696,152.256105738,1128.71832763,-2.11408092287,-0.0921860907409,0.0102476666942,-6.54112675328,6.949492736
1591961329384099163,152.259751431,1128.72273326,-2.11436282213,-0.0904153038663,0.0115650242487,-6.60269825356,6.99878016
1591961329434688692,152.262841995,1128.72604209,-2.11467209944,-0.087204875911,0.01337483726,-6.64398503898,7.049369856
1591961329485235752,152.265582204,1128.7286184,-2.11500883557,-0.0828741623667,0.0149381813796,-6.67138901211,7.0999168
1591961329533643788,152.269693659,1128.73096798,-2.11536577076,-0.0754400177692,0.0150654231021,-6.68816675495,7.148324864
1591961329583532432,152.272973219,1128.73242985,-2.11576170096,-0.0686746045533,0.01649909402,-6.69025104529,7.198213632
1591961329636793290,152.275763596,1128.73308842,-2.11616946142,-0.0607848368727,0.0178593600915,-6.6814081416,7.251474432
1591961329685672742,152.278782301,1128.7330055,-2.11659098537,-0.051715520975,0.0181698255678,-6.66318968552,7.300353792
1591961329734600872,152.282971453,1128.73223636,-2.11703351761,-0.0360383899378,0.0173191306943,-6.60860571589,7.349282048
1591961329786118051,152.286199378,1128.73088879,-2.11750534094,-0.0243013471838,0.0181827015124,-6.55590904582,7.400799232
1591961329833496555,152.288885467,1128.72903377,-2.11797775515,-0.014475023806,0.0190534246222,-6.49859995812,7.448177664
1591961329885819589,152.291775086,1128.72666367,-2.11845457043,-0.00520383913915,0.0188218991446,-6.43490976282,7.500500736
1591961329933861066,152.295304909,1128.72304727,-2.11894031587,0.00797609952636,0.0176750173563,-6.31269828221,7.548542208
1591961329985055630,152.298095172,1128.71911084,-2.11944047563,0.0179416613235,0.0178608001713,-6.21099424247,7.599736832
1591961330034718736,152.301005602,1128.71491255,-2.11993664648,0.026375939837,0.0173746420026,-6.11274884868,7.649399808
1591961330087272404,152.304513782,1128.70919646,-2.12043357453,0.036003453656,0.0157552972837,-5.94326661411,7.701953536
1591961330135340895,152.306728649,1128.70340617,-2.1209359171,0.0433354990411,0.0163202766168,-5.80781385396,7.750021888
1591961330187269648,152.308765594,1128.69780211,-2.12142187215,0.0501004329659,0.0162053202588,-5.68190429131,7.80195072
1591961330235868514,152.310701357,1128.69218256,-2.12189124575,0.0549870906543,0.0155887856622,-5.55738184777,7.850549504
1591961330284196393,152.313121495,1128.68470246,-2.12234992595,0.0581788828542,0.0136098450433,-5.34760423027,7.89887744
1591961330331755610,152.314718108,1128.67734975,-2.1228054389,0.0612675735192,0.0133507807278,-5.18402637862,7.946436608
