%time,field.linear.x,field.linear.y,field.linear.z,field.angular.x,field.angular.y,field.angular.z,secs_since_start
1591962595309705517,152.604114858,1128.47452264,-2.11542022289,0.0644739637593,0.00263616416942,-3.39306018761,0.0
1591962595350376790,152.595481903,1128.48287195,-2.11539795224,0.0834587485756,0.00688442141327,-3.47831741062,0.040671232
1591962595384648276,152.587220058,1128.49066093,-2.11505371617,0.0997277366065,0.00614306570632,-3.53580860529,0.07494272
1591962595431178320,152.579441667,1128.49741889,-2.11475564428,0.110088566073,0.00459873609379,-3.57625000266,0.121472768
1591962595488060502,152.568275061,1128.50609064,-2.11449643258,0.123130026863,0.00730786122415,-3.61284646253,0.178354944
1591962595533513558,152.558280925,1128.51354435,-2.11418572092,0.128147482497,0.00552213538335,-3.62925802839,0.223808
1591962595579923336,152.549335598,1128.51966317,-2.11407486802,0.124777866319,0.00380656330081,-3.63287726951,0.270217984
1591962595638186782,152.540099525,1128.52552021,-2.11386139369,0.121941234888,0.00247142814938,-3.62620108061,0.32848128
1591962595692893580,152.526605833,1128.53344745,-2.11366329531,0.113485290082,0.00595407076718,-3.59294008477,0.383188224
1591962595737525291,152.51495448,1128.53979912,-2.11345550468,0.100993698577,0.00395632494276,-3.5581114361,0.427819776
1591962595794552592,152.504170436,1128.54561834,-2.11317375697,0.0879004631086,0.000669295147464,-3.51755122393,0.484847104
1591962595840922937,152.488793995,1128.55335346,-2.11297484375,0.064176650842,0.00409944808671,-3.43613418823,0.531217408
1591962595881131802,152.476459552,1128.55887058,-2.11316746218,0.0428457441484,0.00336861245973,-3.37043257533,0.571426304
1591962595939350435,152.464371918,1128.56409786,-2.11286528947,0.021949293816,-8.34565249795e-05,-3.30066638509,0.629645056
1591962595989603389,152.453206433,1128.56891885,-2.11271666085,0.00357229494638,-0.00250595528559,-3.22898444647,0.679897856
1591962596032066863,152.436675707,1128.57592683,-2.11258209487,-0.021098630048,0.00204546351623,-3.09825972728,0.722361344
1591962596080614259,152.422922771,1128.58123363,-2.11242358053,-0.0412195957842,-0.000576963844602,-2.99140248346,0.770908672
1591962596131695099,152.410232091,1128.58571653,-2.112289403,-0.0587542865426,-0.00357899467423,-2.89040842619,0.821989632
1591962596200440338,152.397632865,1128.589769,-2.11217648405,-0.0747103388722,-0.00556521990311,-2.78899204363,0.890734848
1591962596238728110,152.380378232,1128.59593109,-2.11208806952,-0.094887648792,-0.00274818788247,-2.61800584335,0.92902272
1591962596279928198,152.365252518,1128.60051167,-2.11199405754,-0.109067649048,-0.00583868228092,-2.48522278275,0.970222848
1591962596330306542,152.351826628,1128.60442993,-2.11190421593,-0.118874893499,-0.0105224844155,-2.36526636475,1.020601088
1591962596400283295,152.338863845,1128.60803559,-2.1118334515,-0.125203875424,-0.0141412944218,-2.24922780071,1.09057792
1591962596448516551,152.320196016,1128.61367177,-2.11169871307,-0.130046541944,-0.0125241993576,-2.06030496409,1.138811136
1591962596481407063,152.305363077,1128.61740329,-2.1118200016,-0.126547954887,-0.0165321702229,-1.9200982954,1.171701504
1591962596532661482,152.291388572,1128.62085162,-2.11173228019,-0.125638201844,-0.0218707142488,-1.79345811494,1.222956032
1591962596590755218,152.272409807,1128.62601269,-2.11169056788,-0.11677966095,-0.0213946492428,-1.60257145288,1.281049856
1591962596644319170,152.256402792,1128.62939108,-2.11163434353,-0.109581119149,-0.0266497768678,-1.45981952229,1.33461376
1591962596680560552,152.242265886,1128.63224016,-2.11167098874,-0.0992778272436,-0.0313065557923,-1.33696281663,1.370855168
1591962596733878969,152.22903624,1128.63471899,-2.11167287284,-0.0879236041109,-0.0350236755065,-1.22105791581,1.424173568
1591962596787112384,152.210519676,1128.63892032,-2.11165475693,-0.0647135992971,-0.0324027631463,-1.03910633537,1.477406976
1591962596837263028,152.195030685,1128.64174731,-2.11168977236,-0.0472523262215,-0.035448614616,-0.902962377107,1.527557632
1591962596889220021,152.181627978,1128.64388147,-2.11170489897,-0.031324510315,-0.0399005223217,-0.783624752174,1.579514624
1591962596931635314,152.168951992,1128.64572033,-2.11175821267,-0.0162623642502,-0.042782982591,-0.671928339405,1.621929728
1591962596980967760,152.151900874,1128.64887552,-2.11181700429,0.00816044193394,-0.0412312697855,-0.498505489137,1.671262208
1591962597035939009,152.137680689,1128.65074331,-2.11188195325,0.0237312435243,-0.0450715974994,-0.369652346316,1.7262336
1591962597086693036,152.12503012,1128.65193513,-2.11196263472,0.036921419537,-0.0491056031098,-0.258763673178,1.776987648
1591962597139134069,152.113301266,1128.65309589,-2.11206834349,0.0494592835644,-0.0518777712978,-0.156112232958,1.82942848
1591962597191112224,152.097908618,1128.65501156,-2.11220105873,0.0682909955556,-0.0491613200849,0.00082198964633,1.88140672
1591962597233322961,152.085218745,1128.65609347,-2.11233448203,0.0779320431479,-0.0509680545851,0.116867615346,1.923617536
1591962597280736810,152.074054823,1128.65674338,-2.1125030855,0.0829067366655,-0.052692952285,0.215652547815,1.971031296
1591962597333234955,152.06001063,1128.65798109,-2.11267835133,0.0883314112585,-0.049768464295,0.358008146139,2.023529472
1591962597385256827,152.048596271,1128.65835049,-2.11286195043,0.0891892364439,-0.0508834965673,0.461377958277,2.075551232
1591962597430894607,152.039172845,1128.65823527,-2.11305963046,0.0882765937759,-0.0524338155203,0.548488891714,2.12118912
1591962597485110987,152.030993374,1128.65819982,-2.1133474502,0.0851784297341,-0.0522446001074,0.627114468542,2.175405568
1591962597537967237,152.020207693,1128.65828096,-2.11361232557,0.0754508813506,-0.0475485977348,0.744423648087,2.228261888
1591962597590370798,152.011625968,1128.6577491,-2.11386069817,0.0645656887408,-0.047513003486,0.829540290741,2.280665344
1591962597634228173,152.00441624,1128.65709399,-2.11423211888,0.0527128292877,-0.0472750694012,0.899339680273,2.324522752
1591962597692797721,151.998044382,1128.6561216,-2.11435320939,0.043113744406,-0.0489431311897,0.964741422719,2.383092224
1591962597731136049,151.99102481,1128.65527161,-2.11510463505,0.0238749477546,-0.0429399201356,1.05178620164,2.421430528
1591962597780721477,151.985824876,1128.65386979,-2.11541490442,0.00925572273477,-0.0427261932027,1.11760909102,2.471015936
1591962597833180762,151.981963841,1128.65238145,-2.11580412456,-0.00438592748048,-0.0423375311534,1.17106762161,2.5234752
1591962597890379428,151.978838183,1128.65070155,-2.11624722786,-0.0184844188944,-0.041123052795,1.2176661563,2.580674048
1591962597936506962,151.975572269,1128.64848031,-2.11672727186,-0.0393217679872,-0.0376054636193,1.23219281685,2.626801408
1591962597987931012,151.974319871,1128.64717071,-2.11725971525,-0.0448374685381,-0.0375624610846,1.2872356188,2.678225664
1591962598042326020,151.973644261,1128.64561408,-2.11777544888,-0.0530408657456,-0.0360341920548,1.32856991268,2.732620544
1591962598081380536,151.973281316,1128.64314579,-2.11828312367,-0.0632035137818,-0.033540138181,1.36326093919,2.771675136
1591962598130514859,151.974617539,1128.63854042,-2.11887938822,-0.0802398001392,-0.029683480473,1.42287016784,2.820809472
1591962598188775095,151.975842447,1128.63585064,-2.11948519807,-0.0835414490133,-0.027077399256,1.44563844422,2.879069696
1591962598236752803,151.977515601,1128.6324189,-2.12007048703,-0.0875286787128,-0.0240767644191,1.46696738366,2.927047424
1591962598284855766,151.9804337,1128.62893816,-2.12067275855,-0.0903028969845,-0.022016437475,1.48621035236,2.975150336
1591962598342375573,151.985606518,1128.62378673,-2.12130276755,-0.095980106513,-0.0195143662456,1.5120781804,3.032670208
1591962598394494305,151.990934366,1128.61886584,-2.12195677602,-0.0958277921868,-0.0160937004562,1.52936335297,3.084788736
1591962598431921676,151.996339551,1128.61409262,-2.12262202071,-0.0924507640304,-0.0120603913513,1.54253703905,3.122216192
1591962598482303066,152.005427243,1128.60731727,-2.12329578901,-0.0845424885181,-0.00983919136301,1.55853804707,3.172597504
1591962598531643035,152.013941528,1128.60103403,-2.1239988972,-0.0741540977172,-0.00490051820361,1.56923745646,3.221937664
1591962598595665005,152.022079067,1128.59508289,-2.12469851612,-0.0632077394964,0.000558093879184,1.57736194932,3.285959424
1591962598645921613,152.030457999,1128.58937385,-2.12538066734,-0.052400471985,0.00506464855514,1.58403006748,3.336216064
1591962598691776367,152.043695347,1128.58073292,-2.12606435461,-0.0371322834269,0.00633222183713,1.59265945571,3.382070784
1591962598731415020,152.05593845,1128.57302488,-2.12676978474,-0.0212381977983,0.0112675729901,1.59871418239,3.421709568
1591962598783137639,152.067681936,1128.56557269,-2.12750155616,-0.00549692162655,0.0174093735006,1.60389444277,3.473432064
1591962598832067884,152.078741663,1128.55852244,-2.12809003315,0.00866021653649,0.0215536200061,1.60890536081,3.522362368
1591962598880734394,152.096086843,1128.5479206,-2.1287618457,0.0286881670978,0.0218321525877,1.61923020535,3.571028992
1591962598935540547,152.111555966,1128.53867294,-2.12944642203,0.047010667763,0.0275969642093,1.62887782566,3.625835008
1591962598988828182,152.126161608,1128.52984262,-2.13020545882,0.0646626088618,0.0354657504983,1.6399034077,3.679122688
1591962599036760908,152.139895137,1128.52180183,-2.13059674676,0.0740494383498,0.037747443896,1.65241744593,3.72705536
1591962599082040060,152.160805334,1128.50967972,-2.13120210138,0.0887506793431,0.036571338206,1.68112738176,3.772334592
1591962599131150714,152.178639369,1128.4990876,-2.13181107893,0.102548708419,0.0428023727346,1.70687017786,3.82144512
1591962599190145769,152.195726713,1128.48918208,-2.13236238437,0.113699843486,0.04818385913,1.7335223983,3.88044032
1591962599236480337,152.219188081,1128.47591473,-2.13285882902,0.122898334174,0.0462655724683,1.78480090715,3.926774784
1591962599285248729,152.239346822,1128.4641677,-2.13335481207,0.131167761433,0.0517877369524,1.82863972877,3.975543296
1591962599334720686,152.257565561,1128.45360531,-2.13378010399,0.137404432764,0.0574327855137,1.87280959394,4.025015296
1591962599384127415,152.274663324,1128.44348966,-2.13415617073,0.140674988203,0.0616770022606,1.9203813486,4.074422016
1591962599432424809,152.299006474,1128.42961544,-2.13448751118,0.135521788967,0.0562465150561,2.01174425705,4.122719232
1591962599485144021,152.320024009,1128.41740383,-2.13482994935,0.133932708979,0.0594110111155,2.08904096516,4.175438592
1591962599533817798,152.339140912,1128.40645486,-2.13512028289,0.133385208989,0.0634196509643,2.16562864547,4.224112384
1591962599590012523,152.357561403,1128.39575937,-2.13556416142,0.13556303856,0.0684772321404,2.24880172482,4.280306944
1591962599640780781,152.382069661,1128.38172741,-2.13534814394,0.121176471738,0.0577670493993,2.39832272112,4.331075328
1591962599681454524,152.403483453,1128.36914668,-2.13556659049,0.116486048207,0.060193526039,2.52631739196,4.37174912
1591962599735337028,152.422747165,1128.35750189,-2.13571483956,0.111056446867,0.0637032964202,2.65029246026,4.425631488
1591962599815979258,152.448640857,1128.34266049,-2.1357699285,0.0966724904923,0.0567614644914,2.86702212962,4.506273792
1591962599838095014,152.470534461,1128.3293841,-2.13589498693,0.0912572427981,0.0599510457512,3.04457258703,4.528389632
1591962599880036962,152.4888371,1128.31790156,-2.13560791603,0.0867853651565,0.0615601416606,3.20876945916,4.570331392
1591962599930266214,152.513348748,1128.30300348,-2.13553045017,0.0726168357431,0.0548438278238,3.49489796972,4.62056064
1591962599988367534,152.533706993,1128.2896838,-2.13540692664,0.0626248246823,0.0566123409654,3.72138006311,4.678662144
1591962600044920449,152.551734693,1128.27783411,-2.13522126016,0.0532405629715,0.0588537279392,3.9298301464,4.735215104
1591962600083093958,152.567859143,1128.26695913,-2.13496027158,0.0427283896524,0.0601600721362,4.13462662663,4.773388544
1591962600140540969,152.589470654,1128.2535319,-2.13448881384,0.0201630984205,0.0502747546296,4.471505272,4.830835456
1591962600204381268,152.607322678,1128.24114929,-2.13417929245,0.00636472538053,0.0502642899091,4.73541107409,4.894675712
1591962600231644926,152.622827827,1128.23013828,-2.13377937149,-0.00374587112842,0.0507733548969,4.97184062139,4.921939456
1591962600288052705,152.636483672,1128.22005937,-2.13332081878,-0.0131423114724,0.0505806318808,5.19992280089,4.978347264
1591962600339344009,152.654930706,1128.2079392,-2.13281845997,-0.0321573787024,0.0412540860596,5.56970751197,5.029638656
1591962600383565616,152.669807006,1128.19669274,-2.13230114934,-0.0426532709123,0.0397201447813,5.85190460294,5.073860096
1591962600432061528,152.682664513,1128.18666433,-2.13173590879,-0.0495180597439,0.0387433026811,6.10135661694,5.122355968
1591962600488617544,152.693943944,1128.17768132,-2.13117595919,-0.0559085063519,0.0373784394209,6.33991683392,5.178912
1591962600534872072,152.708303886,1128.16764609,-2.13047086594,-0.0685026274762,0.0280171111921,6.71343295073,5.225166592
1591962600587196447,152.71557401,1128.16248866,-2.12979003728,-0.0713345270129,0.0294494687851,6.99714048695,5.277490944
1591962600640559475,152.727111941,1128.15250178,-2.12911798022,-0.0824973347174,0.0220861183695,7.10132867387,5.330853888
1591962600695410810,152.739999857,1128.14348942,-2.12854527176,-0.0943246233088,0.0129247648805,7.28189290642,5.385705216
1591962600739616740,152.745885062,1128.13934787,-2.12762575892,-0.0837569231161,0.0166927809387,7.61606855344,5.429911296
1591962600788595329,152.752014226,1128.13479598,-2.12698241517,-0.0894892348151,0.0124722633208,7.87775963272,5.478889984
1591962600832569636,152.759812143,1128.12714124,-2.12621102572,-0.0943452289795,0.00660884851938,8.10117831653,5.522864128
1591962600889809363,152.763559888,1128.12320016,-2.12545548645,-0.0913255534316,0.00772538542254,8.31362268636,5.580103936
1591962600931288050,152.769230775,1128.11857966,-2.12467840953,-0.0871585877621,0.00177115304085,8.62204886965,5.621582592
1591962601002705674,152.774072423,1128.11229256,-2.12397882543,-0.0905428449403,-0.00350427744015,8.85684503089,5.693000192
1591962601045918647,152.777182507,1128.10759536,-2.12322018243,-0.0780016810352,-0.00367025119523,9.03831173786,5.736213248
1591962601081749045,152.779740564,1128.10378162,-2.12248732147,-0.0704913980105,-0.00688954369829,9.21148464038,5.77204352
1591962601131378146,152.781892734,1128.1006739,-2.12175297106,-0.0553468128062,-0.0114316496494,9.46089265749,5.821672704
1591962601207668161,152.783430217,1128.09762653,-2.12097306999,-0.044245582488,-0.0158460441877,9.64220853596,5.897962752
1591962601252183262,152.784024639,1128.0955154,-2.1203359798,-0.0299309720939,-0.0149261847249,9.78106530659,5.942477824
1591962601283977235,152.783456908,1128.0947127,-2.11960538619,-0.0164252033255,-0.0166382901544,9.90833169987,5.974271744
1591962601330181973,152.782011134,1128.09382943,-2.11889389355,0.00220469821302,-0.0189037336807,10.0842098459,6.020476416
1591962601391153150,152.779825429,1128.09284174,-2.11793787354,0.0177133124044,-0.0245578604247,10.2125764923,6.08144768
1591962601430106224,152.777806662,1128.09259671,-2.11770993837,0.0244240357896,-0.0189623065646,10.3006757001,6.12040064
1591962601480346775,152.773195981,1128.09339705,-2.11695467602,0.0414128058611,-0.0200667383706,10.4236483003,6.170641408
1591962601560987688,152.768945757,1128.09419927,-2.11625862445,0.0506066955477,-0.0217101904691,10.5039424218,6.251282176
1591962601585573098,152.764319603,1128.09524661,-2.11556072526,0.0571335836969,-0.0231098681703,10.5624444407,6.275867648
1591962601630710992,152.759767242,1128.09677468,-2.11515720072,0.058317811892,-0.0216637899014,10.6049819217,6.321005568
1591962601680858354,152.752343158,1128.09984435,-2.11458844479,0.0619728117837,-0.0197602332057,10.6461745138,6.371152896
1591962601738000231,152.745517835,1128.10259758,-2.11405252304,0.0605465984353,-0.0200770746243,10.6645069187,6.428294656
1591962601803766181,152.738939787,1128.10531155,-2.113472445,0.0575027874797,-0.0215976933845,10.6671814887,6.4940608
1591962601852344620,152.732917504,1128.1082287,-2.11326208215,0.0508462437901,-0.020558414556,10.6578822739,6.542639104
1591962601887055822,152.723154793,1128.11281054,-2.11288137739,0.0431988477825,-0.0174534299111,10.6099269761,6.5773504
1591962601931422065,152.714500062,1128.11712077,-2.11251352349,0.0340475073504,-0.0180054921167,10.5584213586,6.62171648
1591962601991607266,152.706509971,1128.12127699,-2.11219914688,0.0245350929163,-0.0191849961817,10.4984665209,6.681901824
1591962602038525959,152.698468784,1128.12535148,-2.11200258076,0.0150517808033,-0.0191438613075,10.4288501035,6.72882048
1591962602085019332,152.687100939,1128.13113073,-2.11176770934,0.000975786691428,-0.0162591712796,10.2869816271,6.77531392
1591962602138146795,152.677241063,1128.13678395,-2.11173285863,-0.0115132665324,-0.0160391547089,10.1689238884,6.828441344
1591962602185271877,152.667930842,1128.14210168,-2.1115574263,-0.0250950950415,-0.017253906761,10.0503530238,6.875566336
1591962602232083281,152.659273578,1128.14709981,-2.11158804654,-0.036680791247,-0.0172634528917,9.92937032441,6.922377728
1591962602291257718,152.646979101,1128.15369875,-2.11149210899,-0.0526732424984,-0.0136860145425,9.70754813148,6.981552128
1591962602340090849,152.636132757,1128.1599591,-2.11163620539,-0.0620042571212,-0.0127538439838,9.53227179008,7.030385408
1591962602381262733,152.626381851,1128.1658492,-2.11169892618,-0.0699819596036,-0.0135575615458,9.3659639056,7.071557376
1591962602437566885,152.613114355,1128.17284515,-2.11180042418,-0.0732899827478,-0.00942049430159,9.09222575366,7.127861504
1591962602509197387,152.60200959,1128.17964687,-2.11192623853,-0.074111738861,-0.0101555773344,8.87897538782,7.19949184
1591962602531430837,152.592295637,1128.1856918,-2.11215233446,-0.0731935693268,-0.0110290708171,8.68714505429,7.22172544
1591962602584565639,152.582773118,1128.19122216,-2.11237262829,-0.0716798382722,-0.0107425938141,8.49919196532,7.274860288
1591962602631089807,152.570263275,1128.19759743,-2.11263259601,-0.0653685989411,-0.00553860376197,8.18789390779,7.321384448
1591962602694807677,152.559117927,1128.2037624,-2.11288567862,-0.0605760896921,-0.00434433635448,7.94541200014,7.38510208
1591962602744166314,152.549355979,1128.20939204,-2.11317015029,-0.0559292856917,-0.00444484629034,7.72644078157,7.434460928
1591962602781485604,152.540447735,1128.21455693,-2.11350280992,-0.0503803347997,-0.00408254312647,7.51418756255,7.471780096
1591962602831406495,152.528301358,1128.22014613,-2.1138410415,-0.0381012870742,0.00206864693892,7.1646073949,7.52170112
1591962602882768499,152.517392339,1128.22583387,-2.11415617415,-0.0281265089154,0.0038109211341,6.89438124749,7.573062912
1591962602931331846,152.507803727,1128.23110139,-2.11449512752,-0.0191313025122,0.00401358028702,6.6529369604,7.621626368
1591962602994696108,152.499249564,1128.23584536,-2.11473948604,-0.0099046707107,0.00353267732042,6.4153208576,7.68499072
1591962603044363591,152.487881932,1128.2403763,-2.11529891315,0.00638734869525,0.00906752360632,6.05242224687,7.734658048
1591962603083741084,152.477681545,1128.2451754,-2.11561889995,0.0201717654513,0.00960553652607,5.76852022,7.774035712
1591962603129959638,152.469004709,1128.24955503,-2.11596906004,0.0311774339158,0.00833731178614,5.52080459658,7.820254208
1591962603179756864,152.460697345,1128.25348861,-2.11634291474,0.0409906641344,0.00782836716447,5.28829537448,7.870051328
1591962603237264517,152.449360661,1128.25711199,-2.11670159712,0.0577430116739,0.0113596019794,4.92517002771,7.927559168
1591962603289647204,152.439973283,1128.26107873,-2.117041519,0.0698159943501,0.00972217772269,4.65401636494,7.979941632
1591962603332773915,152.431448119,1128.26462572,-2.11745269417,0.0763766779746,0.00810305849855,4.42517338759,8.023068416
