%time,field.linear.x,field.linear.y,field.linear.z,field.angular.x,field.angular.y,field.angular.z,secs_since_start
1590675090915220243,152.257925135,1128.51113021,-2.12025271129,-0.00247967521568,-0.0107933156176,0.471199609882,0.0
1590675090970715701,152.254554705,1128.51319608,-2.1203499765,-0.00315580658943,-0.0106614659338,0.528297999988,0.055495424
1590675091016490060,152.251697001,1128.51528899,-2.12046831912,-0.00338647384388,-0.0109021224796,0.582447643875,0.10126976
1590675091058718691,152.247554756,1128.51906184,-2.1206086047,-0.00088942145895,-0.00894492665601,0.668536652179,0.143498496
1590675091110474451,152.243765678,1128.52238735,-2.12075932307,-0.000156368675421,-0.00824895837669,0.733384126507,0.195254272
1590675091158019183,152.240697245,1128.52582164,-2.12092444023,0.000690324902835,-0.00845060771645,0.789968946008,0.242798848
1590675091210066253,152.236471147,1128.53122669,-2.12111239986,0.0058773756391,-0.0062814382323,0.874313952869,0.294845952
1590675091277333492,152.234231203,1128.53427583,-2.12131609998,0.00459991236035,-0.00763713687044,0.905856965234,0.36211328
1590675091318870760,152.230409985,1128.53965387,-2.12152894558,0.0102621769242,-0.00575638271968,0.948761313597,0.40365056
1590675091355823595,152.226990079,1128.54425945,-2.12173289491,0.0133889574072,-0.00424328174841,1.02299793607,0.440603392
1590675091407611261,152.222483518,1128.55145149,-2.12195261659,0.0221394967289,-0.00241137291997,1.05098458098,0.492390912
1590675091463960270,152.220078169,1128.5554336,-2.12218572829,0.0209284962466,-0.00412823827208,1.11938026652,0.548740096
1590675091510260449,152.21782731,1128.55934683,-2.12242034536,0.0228325236533,-0.00447629497859,1.1726401481,0.595040256
1590675091570234674,152.21565914,1128.56370211,-2.12265622345,0.0263776457734,-0.00420233518879,1.2192751939,0.6550144
1590675091607326639,152.213000413,1128.56857965,-2.12288908056,0.0303814403031,-0.00304725968799,1.26245331238,0.692106496
1590675091668977808,152.209537199,1128.57634406,-2.12311204611,0.0398610107933,-0.00112679979455,1.32688732019,0.753757696
1590675091706801670,152.206136219,1128.58300638,-2.12332878121,0.0434566158237,-0.000195111120024,1.373499484,0.79158144
1590675091758829473,152.203300652,1128.58912326,-2.12354079946,0.0452455903006,-0.000194362591078,1.41191434649,0.843609344
1590675091808899798,152.200779,1128.59497768,-2.12375390784,0.0461242141567,-0.000155124401435,1.44578983047,0.893679616
1590675091858352114,152.196849679,1128.60375866,-2.1239598405,0.050429158471,0.00220477028604,1.49262414309,0.943131904
1590675091909524951,152.193700322,1128.61126797,-2.12414644297,0.0489901708304,0.00245314324068,1.52483256792,0.994304768
1590675091958335917,152.190991238,1128.61789122,-2.12432746034,0.0452765562537,0.00245962303087,1.54976219114,1.043115776
1590675092007220059,152.187471906,1128.62711953,-2.12449979068,0.0409461188757,0.00424926164844,1.57933197674,1.091999744
1590675092057940590,152.184549814,1128.63494179,-2.12464841106,0.0336726385422,0.00455979746269,1.59784942049,1.142720256
1590675092109595944,152.181430802,1128.64178749,-2.12478638329,0.0257538826864,0.00524548398507,1.61036695733,1.19437568
1590675092157316169,152.177667584,1128.65094498,-2.12490525117,0.0162180252387,0.00655256057898,1.62100770673,1.242095872
1590675092209267008,152.174594691,1128.65857784,-2.12499794829,0.00535362450637,0.00619486502474,1.62547011042,1.29404672
1590675092258942707,152.171910781,1128.66537154,-2.12507811409,-0.00458518738603,0.00560230403874,1.62607149235,1.343722496
1590675092311883485,152.169446461,1128.67145826,-2.12514283548,-0.0138101666689,0.00512511598037,1.62363858423,1.396663296
1590675092369241538,152.165513835,1128.67975397,-2.12518650898,-0.0250144348977,0.00652882989158,1.61287078508,1.454021376
1590675092415215310,152.162332108,1128.68649678,-2.12519186172,-0.0361124790521,0.00590556041929,1.60161420069,1.499995136
1590675092462588230,152.159587243,1128.69232947,-2.12517104685,-0.0454001211545,0.00500941936503,1.58880599781,1.547367936
1590675092513199055,152.157070321,1128.69768361,-2.12514537064,-0.0536543987457,0.00426363160052,1.57383418528,1.59797888
1590675092556473079,152.153112841,1128.70439769,-2.12508648552,-0.0632055682545,0.00527409405397,1.54390149964,1.641252864
1590675092605604310,152.149903427,1128.70986852,-2.12499627289,-0.0714734427191,0.00431956456699,1.51854176054,1.690384128
1590675092674188458,152.147125408,1128.71436085,-2.12488788566,-0.0782416133137,0.00309284538187,1.49390991313,1.75896832
1590675092726857011,152.142999888,1128.7194818,-2.12475963977,-0.0851110082195,0.00336642112372,1.45136105756,1.811636736
1590675092761215406,152.139196462,1128.72337845,-2.1245782054,-0.0889705718157,0.00248001043263,1.41778925224,1.845995264
1590675092810441998,152.13607549,1128.72632656,-2.12438647126,-0.0916553291761,0.000673709358495,1.38673571746,1.89522176
1590675092858510954,152.132825543,1128.72872096,-2.12418117945,-0.0927279806017,-0.000408209140186,1.35612500637,1.943290624
1590675092909995841,152.12845332,1128.7310384,-2.12394757373,-0.0924493526612,-0.000735068104615,1.30523899198,1.994775552
1590675092956905032,152.12502282,1128.73249686,-2.12368191281,-0.0911758382832,-0.00274959964333,1.26589641931,2.041684736
1590675093007071960,152.121612718,1128.73317281,-2.12339983433,-0.08849743125,-0.00415175020999,1.23069738768,2.091851776
1590675093068085171,152.118208176,1128.73315992,-2.12310253737,-0.0851602413223,-0.00532791097638,1.19681348324,2.152865024
1590675093122295258,152.11376662,1128.7322921,-2.12277983667,-0.0795707504899,-0.00584513601869,1.14244537976,2.207075072
1590675093157478226,152.109800332,1128.73084256,-2.12242749635,-0.0739373228979,-0.00727593774893,1.10122814329,2.24225792
1590675093208395859,152.106628981,1128.72900221,-2.12206193148,-0.0681737858714,-0.00933529655763,1.06497558225,2.293175552
1590675093272607408,152.101786934,1128.72526106,-2.1216794931,-0.0618928313451,-0.00924060114824,1.05140135914,2.357387264
1590675093309973956,152.097627238,1128.72130227,-2.1212687271,-0.0557397080533,-0.0105238522269,0.984155698703,2.394753792
1590675093356717154,152.094378034,1128.71733727,-2.12085249688,-0.0495089090836,-0.0124424619579,0.938206386017,2.441496832
1590675093413058390,152.091095316,1128.71299937,-2.1204276126,-0.0442131348585,-0.013521423912,0.900042929621,2.49783808
1590675093479063971,152.08623397,1128.70561585,-2.11998993259,-0.0406422403624,-0.0129415674026,0.88556146091,2.56384384
1590675093523533985,152.082587675,1128.69849782,-2.11952099083,-0.0357624864661,-0.0148065641587,0.838601595141,2.608313856
1590675093562781300,152.07916672,1128.69188976,-2.11909041182,-0.0305313865241,-0.0158969836797,0.800476947477,2.64756096
1590675093607456274,152.074737975,1128.68137094,-2.11862017086,-0.0292832293241,-0.0166183431936,0.764731303939,2.692236032
1590675093677107295,152.072444572,1128.67542588,-2.11816429813,-0.0227135889822,-0.0190599770047,0.709683317089,2.761886976
1590675093722791876,152.070277486,1128.66871402,-2.11770558809,-0.0197164054506,-0.0205300400973,0.667783569482,2.807571712
1590675093761799199,152.06766856,1128.66177833,-2.11729475362,-0.0176796231181,-0.020845331144,0.631022437024,2.846578944
1590675093808762896,152.0653343,1128.65389986,-2.11688570178,-0.0166271720268,-0.021748886898,0.596115905396,2.893542656
1590675093865043114,152.061569357,1128.6412243,-2.11647223272,-0.0192083854777,-0.0218296804941,0.540108300196,2.949822976
1590675093911509540,152.058589708,1128.62978106,-2.11605843339,-0.0171329784857,-0.0233305001741,0.497311421672,2.99628928
1590675093962334239,152.056063005,1128.61900704,-2.11566549696,-0.0141534238274,-0.0248052771537,0.459236871326,3.047113984
1590675094013083224,152.05379146,1128.6083724,-2.11528972012,-0.0113187369384,-0.0259777177444,0.422553753896,3.097862912
1590675094059634695,152.051142315,1128.59239453,-2.11492580892,-0.0130436723266,-0.0268023474984,0.36265246852,3.144414464
1590675094113026134,152.049346366,1128.57853572,-2.1145780916,-0.00875592181237,-0.0282099074274,0.316655577561,3.197805824
1590675094169431668,152.048032127,1128.56558755,-2.11425097086,-0.00374016467838,-0.0292620177482,0.275608130664,3.254211328
1590675094221346217,152.046461725,1128.54717473,-2.11391177321,-0.00295084563238,-0.0297416436975,0.211526212762,3.30612608
1590675094257441516,152.045283325,1128.53172044,-2.11366875863,0.00314743228584,-0.0299343701305,0.163325041094,3.342221312
1590675094307554547,152.044841376,1128.51771525,-2.11341326738,0.00979102414839,-0.0305801044582,0.120656124456,3.392334336
1590675094356659316,152.04481409,1128.50427186,-2.11315965034,0.0154795020204,-0.0309352995643,0.0799728354944,3.441438976
1590675094407701855,152.045016154,1128.48462607,-2.11295372225,0.0149744679399,-0.0310401957568,0.0154729477896,3.492481536
1590675094472065474,152.045875068,1128.46795915,-2.11276104922,0.0208345333164,-0.0313689912543,-0.0331741558229,3.556845312
1590675094510303893,152.047096465,1128.45273308,-2.11260875438,0.0264043223189,-0.0313293804674,-0.0755818019564,3.595083776
1590675094562422182,152.048511734,1128.43832605,-2.11249216066,0.0307252289347,-0.0309387124269,-0.115342874467,3.647202048
1590675094611610225,152.051088022,1128.41774139,-2.11239712908,0.0285037685535,-0.0315938778935,-0.17711416912,3.696389888
1590675094659439774,152.053781182,1128.40045806,-2.1123469204,0.0329952603361,-0.0312384323283,-0.222746551758,3.744219648
1590675094706631984,152.056519185,1128.38474484,-2.11232797339,0.0370334170289,-0.0305044435298,-0.261659871487,3.791411712
1590675094755235866,152.061384562,1128.36327918,-2.11233698947,0.0330011117789,-0.0319891479845,-0.317879016002,3.840015616
1590675094805955467,152.065870336,1128.34528746,-2.11238733871,0.0359632422343,-0.0310322797692,-0.358350863424,3.89073536
1590675094863801636,152.07065115,1128.32943016,-2.11245733747,0.0392178296923,-0.0300880741094,-0.391866507434,3.948581376
1590675094918728788,152.075570507,1128.31478037,-2.11255771052,0.040864048387,-0.0290180158893,-0.421558938827,4.00350848
1590675094956906225,152.082620641,1128.29429532,-2.11273370255,0.0320443948941,-0.0299564373772,-0.463245546772,4.041686016
1590675095005679904,152.089328875,1128.277082,-2.11293044339,0.0315327536723,-0.028562577311,-0.492030135754,4.090459648
1590675095064927164,152.09635912,1128.26188351,-2.1131359638,0.0324311883617,-0.0271617274581,-0.514586054333,4.149707008
1590675095115927234,152.102987731,1128.24786632,-2.11338344518,0.0326617078466,-0.0250175894751,-0.533242084314,4.200707072
1590675095158221305,152.113040104,1128.22862209,-2.1136808635,0.0258417524053,-0.0265619379277,-0.556409857743,4.243001088
1590675095218345443,152.122438533,1128.21248092,-2.1140082856,0.0272386684096,-0.0245735893608,-0.570820017229,4.303125248
1590675095266012298,152.131396394,1128.19836394,-2.11436945449,0.0298012852982,-0.0217852313995,-0.580519551843,4.350792192
1590675095311382694,152.144317107,1128.17990664,-2.11475596972,0.0271434466247,-0.0229574728475,-0.588675917254,4.39616256
1590675095365911123,152.155746846,1128.1649167,-2.11520414006,0.0314792619222,-0.019617293527,-0.591412685703,4.450690816
1590675095406072092,152.166307872,1128.15208645,-2.11566261755,0.0366439644113,-0.0156321056961,-0.590475058955,4.49085184
1590675095458211933,152.176901836,1128.14042896,-2.11612179506,0.0410041636167,-0.012595363116,-0.586428472787,4.542991616
1590675095508140669,152.192232573,1128.12469136,-2.11660887544,0.0417034873191,-0.0142179191149,-0.572177747228,4.59292032
1590675095579036588,152.205989352,1128.11201278,-2.11715596158,0.0474925411983,-0.0106891633652,-0.55732663611,4.663816448
1590675095615103720,152.218885949,1128.10099983,-2.11769941864,0.053484322536,-0.00614114936371,-0.540293324615,4.69988352
1590675095654724073,152.231086331,1128.09127873,-2.11826284919,0.0576878130387,-0.00236171414262,-0.520767177516,4.739503872
1590675095705076067,152.249366648,1128.07857748,-2.11882732974,0.0592400933869,-0.00459990005053,-0.481249303475,4.789855744
1590675095755706702,152.265243762,1128.06832035,-2.1194463996,0.0636025881253,6.82888081917e-05,-0.447228006351,4.8404864
1590675095806421872,152.280235829,1128.05948041,-2.12005696589,0.0669889143682,0.00491610518258,-0.413654699854,4.891201536
1590675095865493571,152.294693322,1128.05190536,-2.12066040475,0.0695127958785,0.00911166857977,-0.37870916121,4.95027328
1590675095930521619,152.315170912,1128.04217482,-2.12127189872,0.0680041144609,0.00670035964924,-0.31697732913,5.015301376
1590675095959307771,152.333142917,1128.03462646,-2.12193038087,0.0684055448449,0.0107738817047,-0.267676730865,5.044087552
1590675096006014356,152.349744382,1128.02833857,-2.12257539572,0.0678101251378,0.0156332203816,-0.222120371355,5.09079424
1590675096055650792,152.366022958,1128.02302174,-2.12319988457,0.0658374191934,0.0189006854025,-0.177464701403,5.140430592
1590675096113145098,152.389010143,1128.01680086,-2.12383015454,0.0590069446366,0.0145218942305,-0.104382608892,5.197924864
1590675096164991595,152.408891431,1128.01201273,-2.12451295781,0.0544255745244,0.0185730561657,-0.0484001455917,5.249771264
1590675096210017725,152.427445311,1128.00836296,-2.12515944273,0.0495296673756,0.0226717072002,0.000598024710802,5.294797568
1590675096259066412,152.452577159,1128.00489956,-2.12577640506,0.0390551342419,0.0180284275588,0.0729007551756,5.343846144
1590675096306347253,152.474175326,1128.00254201,-2.12645947555,0.0314862231462,0.0227285645221,0.126231951445,5.39112704
1590675096356769964,152.493655684,1128.0011401,-2.12710267495,0.0245264204426,0.0281763324186,0.170994106488,5.441549824
1590675096408032464,152.519803381,1128.00076859,-2.12770833068,0.0127938243216,0.0239387028387,0.184786398519,5.492812288
1590675096467488458,152.533700565,1128.00096278,-2.12828137384,0.00871226515474,0.0368318238026,0.237410280654,5.552268288
1590675096513983663,152.549310588,1128.00130572,-2.12882754945,0.00189149781138,0.0395690422306,0.276876936126,5.59876352
1590675096600135747,152.565253984,1128.0023123,-2.12935337819,-0.00463648320048,0.0400153804258,0.309318049903,5.684915456
1590675096616281141,152.582666763,1128.00402392,-2.13012421466,-0.0125830902879,0.0423968028072,0.337943511477,5.701060864
1590675096657176194,152.606367942,1128.00724222,-2.13018751366,-0.0153834620307,0.0293895609669,0.372885444509,5.741956096
1590675096708329351,152.628342475,1128.01059595,-2.13084299095,-0.0211914914528,0.0320561087558,0.397285955742,5.793109248
1590675096779925764,152.647894811,1128.01418273,-2.13139444773,-0.0244080548918,0.0371469457653,0.415666310096,5.864705536
1590675096824326936,152.67505005,1128.02002168,-2.13187276875,-0.0233824300325,0.0320204405606,0.437361662085,5.909106688
1590675096859888187,152.697363016,1128.02562122,-2.1323103699,-0.0222569368227,0.03725992716,0.451908509465,5.944667904
1590675096910126778,152.717601614,1128.03088768,-2.13271593275,-0.0208433538389,0.0427568601027,0.463187483623,5.994906624
1590675096959423023,152.736019436,1128.03639596,-2.13304633441,-0.0175240193877,0.0470635529589,0.472938012917,6.044202752
1590675097012537416,152.753427405,1128.04202557,-2.13334197678,-0.0130939513158,0.0496719407786,0.482212145887,6.09731712
1590675097086507126,152.778215232,1128.05054092,-2.13362237539,-0.00126058840549,0.0421120704716,0.498113932277,6.171286784
1590675097106763433,152.799178613,1128.05822719,-2.13390900892,0.00495402759448,0.0444101057817,0.511341490879,6.191543296
1590675097154752246,152.817954219,1128.06542812,-2.13412029222,0.009315951409,0.04759656517,0.524050552485,6.239532032
1590675097205945670,152.84246852,1128.07568479,-2.13431800516,0.0186672678828,0.0421981906465,0.545557459897,6.290725376
1590675097265262701,152.862759021,1128.08449062,-2.13450650644,0.0211983037484,0.0456964082803,0.562599620354,6.350042368
1590675097315873196,152.880681882,1128.09249453,-2.1346412452,0.0217222197629,0.0496356504687,0.578077719225,6.400653056
1590675097358832178,152.896610975,1128.1002127,-2.13466577498,0.0219325266846,0.0522604309253,0.592956213163,6.443611904
1590675097405503982,152.918376731,1128.11157666,-2.13466695453,0.0255987343237,0.0453133584337,0.616872768437,6.490283776
1590675097477974803,152.936656156,1128.12142533,-2.13472831219,0.0233225604178,0.0470379001532,0.63522091329,6.56275456
1590675097520759111,152.952400554,1128.13041531,-2.13474273644,0.0194799149041,0.0501296648027,0.651319653178,6.605538816
1590675097557752071,152.966448127,1128.13875437,-2.13455800905,0.0156215070411,0.0510500679866,0.666163047926,6.64253184
1590675097614696751,152.985173635,1128.1509304,-2.13446196892,0.0133330528178,0.0447096274163,0.688935066671,6.69947648
1590675097665009801,153.000622669,1128.16112323,-2.13435762473,0.00659701603307,0.0455645421833,0.70563826522,6.749789696
1590675097708436390,153.014212167,1128.17043265,-2.13418990539,-0.000253857653265,0.0468098548365,0.719463272323,6.793216256
1590675097758218044,153.030964225,1128.1830038,-2.13395255693,-0.0065495451997,0.0414927991092,0.737795644576,6.84299776
1590675097806670439,153.044312331,1128.19365807,-2.1337467737,-0.0158934519311,0.0427291578287,0.750478991673,6.891450112
1590675097858995174,153.055691611,1128.20296495,-2.133475161,-0.0251237850231,0.0439402879327,0.760191618474,6.943774976
1590675097909985253,153.065465454,1128.21152845,-2.13317363252,-0.0333166634145,0.0444801520191,0.767977779949,6.994765056
1590675097961387463,153.078019341,1128.2236657,-2.13281756822,-0.040345310434,0.0384480736501,0.776338233288,7.046167296
1590675098012271864,153.087960363,1128.23358012,-2.13246946631,-0.0495538788665,0.0377256180376,0.781014867118,7.097051648
1590675098066658003,153.095916615,1128.24247909,-2.13208586946,-0.0574616583792,0.0378509727578,0.783253428661,7.151437824
1590675098111693856,153.10277669,1128.25057466,-2.13167115947,-0.0641893020762,0.0369754459321,0.783647965769,7.1964736
1590675098160503488,153.111150164,1128.26176031,-2.13122027131,-0.0688151966327,0.0313484715696,0.779785581606,7.245283328
1590675098210074199,153.117242842,1128.27094444,-2.13076800011,-0.0747834808213,0.0299383551658,0.775095797924,7.294853888
1590675098257493564,153.122076025,1128.2789868,-2.13028246078,-0.0796472287645,0.0286819615364,0.769094687533,7.34227328
1590675098308803581,153.125713774,1128.28616147,-2.12978138025,-0.0831031142499,0.0273905669382,0.761784393261,7.39358336
1590675098356608447,153.129766433,1128.2959182,-2.12925606192,-0.0819329175755,0.0229078314441,0.746438241055,7.441388288
1590675098410844797,153.131966274,1128.30385766,-2.1287159928,-0.0824856382162,0.021382388597,0.733550128775,7.495624448
1590675098474235425,153.133157264,1128.31051951,-2.12815295181,-0.0827910040903,0.0198489967213,0.720875413576,7.559015168
1590675098511426160,153.133820435,1128.3190477,-2.12756139347,-0.077195026209,0.0165618584674,0.698585004176,7.596205824
1590675098568379651,153.133696675,1128.32585739,-2.12696051109,-0.0738377622602,0.0142442900133,0.680901128959,7.653159424
1590675098621899580,153.132637419,1128.33142111,-2.12634339794,-0.0700031376112,0.0124725983859,0.66473599336,7.706679296
1590675098655194288,153.130573583,1128.33601544,-2.12570456516,-0.0652608587249,0.0111832471135,0.649057354805,7.739974144
1590675098720705949,153.12690606,1128.34178228,-2.12506829718,-0.0549227649407,0.00895505647419,0.623297717032,7.805485824
1590675098773439606,153.122897039,1128.34636595,-2.12441639069,-0.0477761624995,0.00625221262869,0.60376131052,7.858219264
1590675098806849281,153.118246712,1128.34998853,-2.12375359852,-0.0410796105451,0.00415044361739,0.58683110898,7.891629056
1590675098855733395,153.113779132,1128.35286655,-2.12309632707,-0.0349522036459,0.00104908643494,0.570972641394,7.94051328
