%time,field.throttle_bow,field.position_bow,field.lin_act_bow,secs_since_start
1591010849245029567,-71.7204391956,90,2,0.0
1591010849437532201,-73.9036619663,90,2,0.192502528
1591010849639138409,-72.4325180054,90,2,0.394108672
1591010849838157302,-68.9685761929,90,2,0.59312768
1591010850041257713,-66.065967083,90,2,0.796228096
1591010850237214754,-62.8918886185,90,2,0.992185088
1591010850436741192,-58.0539405346,90,2,1.191711488
1591010850643019004,-50.8454203606,90,2,1.397989376
1591010850841951710,-43.0213063955,90,2,1.596922112
1591010851040331593,-37.15518713,90,2,1.795301888
1591010851236907470,-34.2300325632,90,2,1.991877888
1591010851441576943,-34.6605032682,90,2,2.196547328
1591010851637090162,-36.7852687836,90,2,2.392060416
1591010851836580995,-40.4918223619,90,2,2.591551488
1591010852043936233,-43.4442579746,90,2,2.798906624
1591010852239320016,-49.874651432,90,2,2.994290432
1591010852438813587,-55.5378317833,90,2,3.193784064
1591010852637464039,-58.6223721504,90,2,3.392434432
1591010852837494625,-59.7917199135,90,2,3.592464896
1591010853039461831,-57.7047467232,90,2,3.794432256
1591010853242395751,-50.8693158627,90,2,3.997366016
1591010853443528090,-41.1970794201,90,2,4.19849856
1591010853643347266,-28.8943737745,90,2,4.398317568
1591010853836609829,-9.36881974339,90,2,4.59158016
1591010854039192556,12.731641531,90,2,4.794162944
1591010854239950336,30.9477478266,90,2,4.994920704
1591010854435951540,51.3104915619,90,2,5.190921984
1591010854638248614,73.6770093441,90,2,5.393219072
1591010854836950497,92.0041143894,90,2,5.591920896
1591010855042547544,100.0,90,2,5.797517824
1591010855237116262,100.0,90,2,5.992086528
1591010855441788458,99.3920683861,90,2,6.196758784
1591010855641752692,90.7077431679,90,2,6.396722944
1591010855837625547,74.778264761,90,2,6.592595968
1591010856041192555,52.3693203926,90,2,6.796162816
1591010856239892752,27.3581385612,90,2,6.994863104
1591010856438402132,-7.36100226641,90,2,7.193372416
1591010856639201001,-43.6201423407,90,2,7.394171392
1591010856836443757,-72.2637057304,90,2,7.591414016
1591010857037433830,-93.0173456669,90,2,7.792404224
1591010857239393909,-98.8477885723,90,2,7.99436416
1591010857436635333,-100.0,90,2,8.19160576
1591010857642798231,-98.7031400204,90,2,8.397768704
1591010857836260509,-91.1028921604,90,2,8.591230976
1591010858039029782,-78.4458875656,90,2,8.794000128
1591010858236837542,-62.0213150978,90,2,8.991808
1591010858437917311,-40.4174298048,90,2,9.192887552
1591010858638112883,-19.252577424,90,2,9.393083136
1591010858837108721,-1.39148719609,90,2,9.592079104
1591010859038552959,15.6812489033,90,2,9.7935232
1591010859236794169,30.704665184,90,2,9.99176448
1591010859437994686,41.4175003767,90,2,10.19296512
1591010859643821012,43.4670954943,90,2,10.398791424
1591010859839418349,41.3133263588,90,2,10.594388736
1591010860036649844,33.4788322449,90,2,10.791620096
1591010860237465476,21.465459466,90,2,10.992435968
1591010860438678028,5.22888824344,90,2,11.193648384
1591010860638710270,-9.46783721447,90,2,11.39368064
1591010860836717541,-30.5358111858,90,2,11.591687936
1591010861037380415,-44.5048958063,90,2,11.79235072
1591010861243887120,-55.5880844593,90,2,11.998857472
1591010861438372727,-65.8034980297,90,2,12.193342976
1591010861639831160,-71.1547493935,90,2,12.394801408
1591010861836870523,-71.0424661636,90,2,12.591840768
1591010862042306524,-67.2629654408,90,2,12.797276928
1591010862237938998,-59.791302681,90,2,12.992909312
1591010862442508349,-51.2507855892,90,2,13.197478656
1591010862637268475,-40.159034729,90,2,13.392238848
1591010862837917845,-26.9317150116,90,2,13.59288832
1591010863038758949,-12.3326376081,90,2,13.79372928
1591010863238405854,2.18616314232,90,2,13.993376256
1591010863440306569,18.8311100006,90,2,14.195277056
1591010863639717637,33.8967472315,90,2,14.394688
1591010863838604500,50.5394876003,90,2,14.593574912
1591010864040011386,62.4949097633,90,2,14.794981632
1591010864239268083,70.8444416523,90,2,14.994238464
1591010864438115312,74.8278737068,90,2,15.193085696
1591010864639606074,75.2405822277,90,2,15.394576384
1591010864838836789,75.1332819462,90,2,15.593807104
1591010865043019836,73.974198103,90,2,15.797990144
1591010865239491088,71.719288826,90,2,15.99446144
1591010865439428168,68.8392519951,90,2,16.194398464
1591010865639059843,64.5658552647,90,2,16.394030336
1591010865839617053,60.1352572441,90,2,16.594587392
1591010866040654751,54.0937542915,90,2,16.795625216
1591010866241034475,47.2366720438,90,2,16.996004864
1591010866438047587,37.5192016363,90,2,17.193017856
1591010866638751766,24.3920594454,90,2,17.393722112
1591010866836466733,9.83692407608,90,2,17.591437056
1591010867036579045,-1.54174994677,90,2,17.79154944
1591010867240180015,-10.8619496226,90,2,17.995150336
1591010867440451157,-19.5762395859,90,2,18.19542144
1591010867640322946,-28.2136231661,90,2,18.39529344
1591010867837563389,-37.4981373549,90,2,18.59253376
1591010868039714068,-45.1570510864,90,2,18.794684416
1591010868238402095,-51.038569212,90,2,18.993372416
1591010868439686735,-54.0224909782,90,2,19.194657024
1591010868641721844,-57.4990272522,90,2,19.396692224
1591010868838509009,-60.2055847645,90,2,19.593479424
1591010869036238898,-62.5373482704,90,2,19.791209216
1591010869240490480,-61.2896859646,90,2,19.995460864
1591010869438534692,-63.3085668087,90,2,20.193505024
1591010869638651212,-68.7184274197,90,2,20.393621504
1591010869839174242,-75.2997338772,90,2,20.594144512
1591010870038274099,-82.8420221806,90,2,20.793244416
1591010870237729098,-88.8107955456,90,2,20.992699392
1591010870436742105,-94.661283493,90,2,21.191712512
1591010870637006477,-100.0,90,2,21.39197696
1591010870837439947,-100.0,90,2,21.592410368
1591010871042919482,-100.0,90,2,21.797889792
1591010871236825426,-98.9431023598,90,2,21.991795712
1591010871436337245,-90.2429461479,90,2,22.19130752
1591010871641561968,-81.0868620872,90,2,22.396532224
1591010871837313730,-64.3183410168,90,2,22.59228416
1591010872038583600,-45.1096683741,90,2,22.79355392
1591010872236578323,-19.7963982821,90,2,22.991548672
1591010872438616761,13.3954465389,90,2,23.1935872
1591010872639423314,51.0539233685,90,2,23.3943936
1591010872839048967,77.7374207973,90,2,23.594019328
1591010873039756391,94.0457165241,90,2,23.794726656
1591010873239461289,100.0,90,2,23.994431744
1591010873439641612,100.0,90,2,24.194611968
1591010873638513629,100.0,90,2,24.393484032
1591010873839030870,100.0,90,2,24.594001152
1591010874038551722,100.0,90,2,24.793522176
1591010874236408741,100.0,90,2,24.9913792
1591010874436634620,99.1074919701,90,2,25.191604992
1591010874647218319,74.3753552437,90,2,25.4021888
1591010874837308306,48.777359724,90,2,25.592278784
1591010875039939182,16.4944052696,90,2,25.79490944
1591010875236244869,-18.935289979,90,2,25.99121536
1591010875443071528,-37.5437378883,90,2,26.198041856
1591010875637782175,-63.414555788,90,2,26.39275264
1591010875842011985,-80.218309164,90,2,26.596982272
1591010876042189202,-90.8129394054,90,2,26.79715968
1591010876237435266,-94.2707061768,90,2,26.99240576
1591010876437851836,-96.2921738625,90,2,27.192822272
1591010876637820668,-94.5436418056,90,2,27.39279104
1591010876838284875,-89.6757006645,90,2,27.593255168
1591010877040726845,-79.86510396,90,2,27.795697152
1591010877237839358,-70.932918787,90,2,27.992809728
1591010877438620433,-62.6453995705,90,2,28.193590784
1591010877638091217,-53.6620438099,90,2,28.393061632
1591010877838502931,-46.2586253881,90,2,28.59347328
1591010878037770939,-42.5864964724,90,2,28.792741376
1591010878238129743,-43.3024406433,90,2,28.993100032
1591010878438552098,-48.4537482262,90,2,29.193522432
1591010878638093721,-55.4794609547,90,2,29.393064192
1591010878841310466,-65.4884755611,90,2,29.596280832
1591010879037091303,-77.6022791862,90,2,29.792061696
1591010879242536998,-88.3445560932,90,2,29.997507328
1591010879442216063,-98.5955953598,90,2,30.197186304
1591010879636374456,-100.0,90,2,30.391344896
1591010879840666177,-100.0,90,2,30.59563648
1591010880036827513,-100.0,90,2,30.79179776
1591010880238335754,-98.8008797169,90,2,30.993306112
1591010880437195530,-84.7017049789,90,2,31.192165888
1591010880637814659,-63.2093906403,90,2,31.392785152
1591010880838069703,-38.0442857742,90,2,31.593040128
1591010881038504462,-7.77509287,90,2,31.793474816
1591010881242658036,21.2483346462,90,2,31.997628416
1591010881442143289,60.7207238674,90,2,32.1971136
1591010881637733124,82.9799830914,90,2,32.392703488
1591010881838309622,99.8433947563,90,2,32.59328
1591010882038268640,100.0,90,2,32.79323904
1591010882237994115,100.0,90,2,32.992964608
1591010882435844864,100.0,90,2,33.190815232
1591010882638231557,100.0,90,2,33.39320192
1591010882836845765,98.5026240349,90,2,33.591816192
1591010883044269912,79.4424891472,90,2,33.799240192
1591010883237853764,36.6138875484,90,2,33.992824064
1591010883442199741,-12.7492770553,90,2,34.197170176
1591010883637552556,-62.0788156986,90,2,34.392523008
1591010883845414282,-98.0754673481,90,2,34.600384768
1591010884037370988,-100.0,90,2,34.792341248
1591010884238161731,-100.0,90,2,34.993132032
1591010884436632050,-100.0,90,2,35.191602432
1591010884640904946,-100.0,90,2,35.395875328
1591010884836651490,-100.0,90,2,35.591621888
1591010885038286050,-100.0,90,2,35.793256448
1591010885237468650,-100.0,90,2,35.99243904
1591010885437206738,-100.0,90,2,36.192177152
1591010885638203583,-100.0,90,2,36.393174016
1591010885837318163,-100.0,90,2,36.592288512
1591010886035714850,-100.0,90,2,36.790685184
1591010886242464641,-100.0,90,2,36.997435136
1591010886437610757,-88.8494372368,90,2,37.19258112
1591010886635720667,-66.3890242577,90,2,37.390691072
1591010886841705709,-37.6770108938,90,2,37.596676096
1591010887037949084,-13.2110506296,90,2,37.792919552
1591010887240470167,15.2573406696,90,2,37.99544064
1591010887438455822,40.9382730722,90,2,38.193426176
1591010887638478560,63.2400512695,90,2,38.39344896
1591010887838395787,77.5152266026,90,2,38.593366272
1591010888042262956,89.2856001854,90,2,38.797233408
1591010888237686055,93.1139588356,90,2,38.992656384
1591010888438733069,91.4886534214,90,2,39.193703424
1591010888638421894,85.6875181198,90,2,39.393392384
1591010888841601855,75.0046133995,90,2,39.59657216
1591010889045218971,58.1683754921,90,2,39.80018944
1591010889236414368,35.2154523134,90,2,39.991384832
1591010889443321915,7.659817487,90,2,40.198292224
1591010889637574918,-27.9206424952,90,2,40.39254528
1591010889839269684,-63.1947219372,90,2,40.59424
1591010890037170451,-93.4724271297,90,2,40.7921408
1591010890241807878,-100.0,90,2,40.99677824
1591010890441306029,-100.0,90,2,41.19627648
1591010890637311098,-100.0,90,2,41.392281344
1591010890836727545,-100.0,90,2,41.59169792
1591010891036816990,-100.0,90,2,41.791787264
1591010891237829138,-100.0,90,2,41.992799488
1591010891446284014,-100.0,90,2,42.2012544
1591010891641653530,-100.0,90,2,42.396623872
1591010891837645046,-100.0,90,2,42.592615424
1591010892037206326,-100.0,90,2,42.79217664
1591010892237703827,-100.0,90,2,42.992674304
1591010892437641474,-100.0,90,2,43.19261184
1591010892636631128,-100.0,90,2,43.391601408
1591010892840172612,-100.0,90,2,43.595142912
1591010893040053194,-100.0,90,2,43.795023616
1591010893238689798,-100.0,90,2,43.99366016
1591010893438082317,-94.5519685745,90,2,44.193052672
1591010893638024017,-76.5767216682,90,2,44.392994304
1591010893839718595,-57.0577144623,90,2,44.594689024
1591010894038419365,-40.5119240284,90,2,44.793389824
1591010894238638636,-25.9198486805,90,2,44.99360896
1591010894438324601,-12.5465214252,90,2,45.193294848
1591010894638569476,1.47064775229,90,2,45.39353984
1591010894838530605,13.5936558247,90,2,45.593500928
1591010895037732781,21.7109620571,90,2,45.792703232
1591010895235841826,29.6461254358,90,2,45.99081216
1591010895446450298,36.5812391043,90,2,46.201420544
1591010895637893837,43.0741071701,90,2,46.392864256
1591010895836882767,46.107840538,90,2,46.591853056
1591010896040438300,47.4134922028,90,2,46.79540864
1591010896241628416,45.0310707092,90,2,46.996598784
1591010896436951132,40.0639772415,90,2,47.191921408
1591010896638787454,28.4751802683,90,2,47.393757696
1591010896841540139,14.2939865589,90,2,47.596510464
1591010897038295197,-1.21594974771,90,2,47.793265664
1591010897242634834,-24.6248841286,90,2,47.99760512
1591010897437752343,-55.6557893753,90,2,48.192722688
1591010897636016983,-93.0700957775,90,2,48.390987264
1591010897843190194,-100.0,90,2,48.59816064
1591010898040496240,-100.0,90,2,48.795466496
1591010898239248084,-100.0,90,2,48.994218496
1591010898439689618,-100.0,90,2,49.194660096
1591010898637377656,-100.0,90,2,49.392347904
1591010898838764074,-100.0,90,2,49.5937344
1591010899039880553,-100.0,90,2,49.794850816
1591010899245673354,-100.0,90,2,50.00064384
1591010899437035735,-100.0,90,2,50.192006144
1591010899638732948,-100.0,90,2,50.393703424
1591010899839605957,-100.0,90,2,50.594576384
1591010900038906530,-100.0,90,2,50.793876992
1591010900236948894,-100.0,90,2,50.99191936
1591010900443391785,-100.0,90,2,51.198362112
1591010900639200458,-100.0,90,2,51.39417088
1591010900841708882,-94.2710697651,90,2,51.596679168
1591010901042654262,-58.6134195328,90,2,51.797624576
1591010901237131998,-19.41870749,90,2,51.9921024
1591010901438425572,8.75973924994,90,2,52.193395968
1591010901644754381,29.1393339634,90,2,52.3997248
1591010901842653049,45.1745271683,90,2,52.597623296
1591010902051265705,54.741704464,90,2,52.80623616
1591010902241853250,68.5316681862,90,2,52.996823552
1591010902436220077,74.7069299221,90,2,53.191190528
1591010902638770305,70.7594513893,90,2,53.3937408
1591010902839773595,54.2353510857,90,2,53.594744064
1591010903042402004,41.7293965816,90,2,53.797372416
1591010903238511789,17.291161418,90,2,53.99348224
1591010903439663253,-6.61743283272,90,2,54.194633728
1591010903638690583,-23.8701850176,90,2,54.393660928
1591010903838770901,-45.1543927193,90,2,54.593741312
1591010904047871593,-61.8776500225,90,2,54.802841856
1591010904241839339,-80.5992841721,90,2,54.996809728
1591010904440379990,-99.3994772434,90,2,55.195350272
1591010904638430789,-100.0,90,2,55.393401088
1591010904841448700,-100.0,90,2,55.596419072
1591010905037432939,-100.0,90,2,55.7924032
1591010905238467303,-100.0,90,2,55.993437696
1591010905436927816,-100.0,90,2,56.191898112
1591010905638144373,-100.0,90,2,56.393114624
1591010905842577340,-100.0,90,2,56.597547776
1591010906046533517,-100.0,90,2,56.801504
1591010906238189893,-100.0,90,2,56.993160192
1591010906440308915,-100.0,90,2,57.19527936
1591010906637859288,-100.0,90,2,57.392829696
1591010906836652539,-100.0,90,2,57.591622912
1591010907039064880,-100.0,90,2,57.7940352
1591010907238162475,-100.0,90,2,57.9931328
1591010907436555106,-100.0,90,2,58.191525376
1591010907639251086,-100.0,90,2,58.394221568
1591010907837056619,-100.0,90,2,58.59202688
1591010908041826293,-84.0375959873,90,2,58.796796672
1591010908243908992,-54.8199534416,90,2,58.998879488
1591010908437575760,-21.5453386307,90,2,59.192546048
1591010908638601034,12.6614570618,90,2,59.393571328
1591010908840593505,37.3705804348,90,2,59.595563776
